-0.0333
-0.0350
-0.0350
-0.0300
-0.0300
-0.0333
-0.0317
-0.0333
-0.0333
-0.0367
-0.0350
-0.0417
-0.0417
-0.0383
-0.0417
-0.0467
-0.0467
-0.0517
-0.0533
-0.0583
-0.0583
-0.0633
-0.0633
-0.0600
-0.0633
-0.0600
-0.0600
-0.0583
-0.0583
-0.0567
-0.0583
-0.0567
-0.0600
-0.0550
-0.0550
-0.0500
-0.0517
-0.0417
-0.0417
-0.0367
-0.0367
-0.0317
-0.0317
-0.0250
-0.0267
-0.0183
-0.0167
-0.0083
-0.0083
0.0050
0.0050
0.0133
0.0150
0.0100
0.0083
-0.0183
-0.0200
-0.0450
-0.0450
-0.0567
-0.0567
-0.0550
-0.0567
-0.0500
-0.0500
-0.0450
-0.0467
-0.0483
-0.0483
-0.0533
-0.0533
-0.0600
-0.0600
-0.0783
-0.0783
-0.1083
-0.1100
-0.0883
-0.0850
0.0100
0.0133
0.0367
0.0317
0.0033
0.0050
0.0017
0.0017
-0.0050
-0.0067
-0.0017
-0.0017
0.0067
0.0067
0.0350
0.0367
0.0700
0.0717
0.0017
-0.0283
0.2650
0.3217
0.0333
0.3017
-0.1817
-0.1967
-0.3783
-0.3817
-0.2767
-0.2700
-0.0833
-0.0767
0.0267
0.0300
0.0617
0.0600
0.0200
0.0183
-0.0183
-0.0200
-0.0317
-0.0300
-0.0200
-0.0183
-0.0033
-0.0033
0.0067
0.0067
0.0150
0.0133
0.0217
0.0217
0.0333
0.0333
0.0517
0.0517
0.0833
0.0850
0.1383
0.1400
0.1950
0.2317
0.1300
0.1133
-0.0483
-0.0183
0.1800
0.1450
0.1050
0.1067
0.1150
0.1083
0.0650
0.0633
0.0017
0.0000
-0.0467
-0.0483
-0.0783
-0.0800
-0.0983
-0.0983
-0.1050
-0.1033
-0.1050
-0.1050
-0.0983
-0.1000
-0.0917
-0.0933
-0.0817
-0.0800
-0.0717
-0.0717
-0.0600
-0.0583
-0.0500
-0.0500
-0.0417
-0.0417
-0.0367
-0.0383
-0.0333
-0.0333
-0.0283
-0.0333
-0.0300
-0.0300
-0.0250
-0.0250
-0.0167
-0.0167
-0.0083
-0.0083
0.0017
0.0017
0.0033
0.0050
0.0017
0.0033
0.0017
0.0000
0.0050
0.0033
0.0067
0.0033
0.0067
0.0050
0.0017
0.0033
0.0000
0.0000
-0.0033
-0.0050
-0.0033
-0.0067
-0.0033
-0.0033
-0.0067
-0.0067
-0.0083
-0.0067
-0.0083
-0.0083
-0.0100
-0.0083
-0.0050
-0.0050
0.0017
0.0017
0.0083
0.0083
0.0133
0.0133
0.0200
0.0200
0.0233
0.0233
0.0300
0.0283
0.0400
0.0400
0.0500
0.0483
0.0567
0.0567
0.0533
0.0550
0.0483
0.0483
0.0367
0.0367
0.0283
0.0283
0.0250
0.0283
0.0300
0.0283
0.0150
0.0133
-0.0150
-0.0150
-0.0333
-0.0317
-0.0333
-0.0333
-0.0300
-0.0333
-0.0283
-0.0317
-0.0250
-0.0267
-0.0217
-0.0233
-0.0083
-0.0083
0.0050
0.0067
0.0217
0.0217
0.0150
0.0200
0.0033
0.0017
-0.0667
-0.0667
0.0367
0.0383
-0.0717
-0.0483
0.0183
0.0200
0.0417
0.0417
0.0500
0.0517
0.0567
0.0550
0.0433
0.0417
0.0283
0.0267
0.0150
0.0150
0.0050
0.0067
0.0033
0.0033
0.0067
0.0067
0.0117
0.0100
0.0017
0.0017
-0.0100
-0.0100
-0.0300
-0.0300
-0.0433
-0.0433
-0.0400
-0.0400
-0.0283
-0.0267
-0.0133
-0.0133
0.0017
0.0033
0.0200
0.0200
0.0367
0.0367
0.0400
0.0367
0.0317
0.0317
0.0233
0.0233
0.0167
0.0167
0.0133
0.0133
0.0100
0.0117
0.0083
0.0083
0.0100
0.0083
0.0167
0.0150
0.0200
0.0200
0.0250
0.0250
0.0267
0.0283
0.0317
0.0300
0.0317
0.0283
0.0333
0.0317
0.0367
0.0367
0.0417
0.0417
0.0450
0.0433
0.0383
0.0400
0.0317
0.0317
0.0200
0.0200
0.0067
0.0067
-0.0033
-0.0033
-0.0100
-0.0083
-0.0050
-0.0083
-0.0033
-0.0050
-0.0017
-0.0067
-0.0050
-0.0067
-0.0083
-0.0083
-0.0100
-0.0100
-0.0083
-0.0083
-0.0050
-0.0050
-0.0067
-0.0067
-0.0033
-0.0050
-0.0100
-0.0083
-0.0117
-0.0133
-0.0300
-0.0300
-0.0367
-0.0367
-0.0350
-0.0333
-0.0300
-0.0300
-0.0217
-0.0217
-0.0167
-0.0167
-0.0133
-0.0117
0.0017
0.0017
0.0083
0.0067
-0.0017
-0.0017
-0.0583
-0.0617
-0.1467
-0.1500
-0.1183
-0.1133
-0.0050
0.0000
0.0800
0.0817
0.0900
0.0800
0.0467
0.0467
0.0300
0.0300
0.0233
0.0250
0.0217
0.0200
0.0283
0.0283
0.0333
0.0317
0.0367
0.0367
0.0550
0.0700
0.0517
0.0017
0.1533
0.2633
-0.0250
0.2183
-0.1950
-0.2117
-0.2667
-0.2650
-0.1167
-0.1133
-0.0650
-0.0633
-0.0483
-0.0483
-0.0383
-0.0383
-0.0450
-0.0450
-0.0400
-0.0450
-0.0467
-0.0450
-0.0383
-0.0383
-0.0283
-0.0300
-0.0233
-0.0233
-0.0200
-0.0200
-0.0167
-0.0183
-0.0217
-0.0217
-0.0183
-0.0183
-0.0100
-0.0083
-0.0033
-0.0017
0.0083
0.0083
0.0217
0.0217
0.0267
0.0267
0.0133
0.0133
-0.0167
-0.0183
-0.0483
-0.0483
-0.0650
-0.0667
-0.0617
-0.0600
-0.0467
-0.0467
-0.0400
-0.0400
-0.0383
-0.0400
-0.0450
-0.0433
-0.0467
-0.0467
-0.0433
-0.0417
-0.0367
-0.0367
-0.0300
-0.0300
-0.0267
-0.0267
-0.0200
-0.0200
-0.0150
-0.0167
-0.0117
-0.0117
-0.0167
-0.0167
-0.0183
-0.0167
-0.0267
-0.0267
-0.0333
-0.0333
-0.0400
-0.0400
-0.0450
-0.0433
-0.0467
-0.0467
-0.0500
-0.0500
-0.0467
-0.0467
-0.0383
-0.0383
-0.0283
-0.0283
-0.0233
-0.0233
-0.0267
-0.0233
-0.0217
-0.0233
-0.0200
-0.0217
-0.0183
-0.0183
-0.0167
-0.0183
-0.0217
-0.0217
-0.0283
-0.0250
-0.0150
-0.0133
-0.0067
-0.0050
0.0000
0.0000
0.0067
0.0067
0.0183
0.0167
0.0317
0.0333
0.0517
0.0533
0.0817
0.0833
0.1283
0.1317
0.1750
0.1950
0.0633
0.0500
-0.0400
0.0367
0.0833
0.0800
0.1233
0.1250
0.1417
0.1350
0.0833
0.0800
0.0050
0.0033
-0.0517
-0.0517
-0.0800
-0.0800
-0.1000
-0.1000
-0.1067
-0.1067
-0.1100
-0.1083
-0.1017
-0.1017
-0.0950
-0.0950
-0.0833
-0.0833
-0.0733
-0.0733
-0.0583
-0.0567
-0.0333
-0.0317
-0.0167
-0.0167
-0.0250
-0.0250
-0.0333
-0.0333
-0.0383
-0.0383
-0.0433
-0.0433
-0.0383
-0.0383
-0.0383
-0.0350
-0.0367
-0.0300
-0.0300
-0.0233
-0.0250
-0.0200
-0.0200
-0.0150
-0.0150
-0.0083
-0.0100
-0.0050
-0.0067
-0.0033
-0.0050
-0.0033
-0.0050
-0.0100
-0.0067
-0.0100
-0.0067
-0.0017
-0.0033
0.0017
0.0017
0.0000
0.0017
0.0083
0.0083
0.0150
0.0150
0.0200
0.0200
0.0300
0.0300
0.0383
0.0383
0.0483
0.0500
0.0650
0.0667
0.1217
0.1483
-0.0350
-0.0567
-0.0400
-0.0383
-0.0083
-0.0067
0.0067
0.0067
0.0117
0.0100
0.0117
0.0117
0.0067
0.0067
0.0100
0.0100
0.0167
0.0183
0.0217
0.0217
0.0183
0.0233
0.0267
0.0250
0.0283
0.0267
0.0300
0.0300
0.0383
0.0383
0.0500
0.0500
0.0583
0.0600
0.0633
0.0617
0.0567
0.0583
0.0533
0.0550
0.0467
0.0467
0.0433
0.0450
0.0367
0.0367
0.0317
0.0300
0.0217
0.0217
0.0283
0.0283
0.0317
0.0300
0.0333
0.0300
0.0333
0.0333
0.0383
0.0383
0.0467
0.0467
0.0533
0.0550
0.0633
0.0650
0.0783
0.0800
0.0750
0.0767
0.0850
0.0850
0.0750
0.0733
0.0550
0.0550
0.0317
0.0300
0.0167
0.0150
-0.0633
-0.0783
-0.0567
-0.0550
-0.0300
-0.0300
0.0133
0.0150
0.0800
0.0800
0.0967
0.0983
0.0800
0.0783
0.0450
0.0433
0.0250
0.0233
0.0167
0.0167
0.0133
0.0150
0.0000
-0.0017
-0.0183
-0.0233
-0.0017
0.0017
0.0967
0.1000
0.1500
0.1517
0.1683
0.1667
0.0967
0.3517
0.0717
0.0667
0.3350
0.1367
-0.1483
-0.2050
-0.1483
-0.1450
-0.0700
-0.0667
-0.0300
-0.0283
-0.0133
-0.0133
-0.0017
-0.0017
0.0067
0.0067
0.0033
0.0050
-0.0050
-0.0067
-0.0150
-0.0150
-0.0083
-0.0100
-0.0050
-0.0050
-0.0033
-0.0033
-0.0067
-0.0067
-0.0183
-0.0200
-0.0450
-0.0450
-0.0617
-0.0617
-0.0683
-0.0683
-0.0717
-0.0700
-0.0733
-0.0733
-0.0867
-0.0867
-0.0950
-0.0950
-0.1017
-0.1017
-0.1067
-0.1067
-0.1100
-0.1083
-0.1117
-0.1133
-0.1100
-0.1083
-0.0983
-0.0967
-0.0850
-0.0850
-0.0917
-0.0917
-0.1033
-0.1033
-0.1233
-0.1250
-0.1383
-0.1383
-0.1450
-0.1433
-0.1500
-0.1500
-0.1667
-0.1683
-0.1983
-0.2000
-0.2333
-0.2333
-0.2583
-0.2600
-0.2717
-0.2733
-0.2700
-0.2717
-0.2667
-0.2700
-0.2667
-0.2667
-0.2633
-0.2650
-0.2683
-0.2683
-0.2617
-0.2617
-0.2550
-0.2567
-0.2467
-0.2483
-0.2433
-0.2433
-0.2350
-0.2350
-0.2250
-0.2250
-0.2083
-0.2083
-0.1950
-0.1933
-0.1700
-0.1683
-0.1367
-0.1367
-0.0983
-0.0983
-0.0533
-0.0517
-0.0133
-0.0133
0.0067
0.0067
0.0133
0.0133
0.0217
0.0183
0.0233
0.0233
0.0283
0.0283
0.0350
0.0333
0.0417
0.0417
0.0483
0.0483
0.0533
0.0533
0.0583
0.0583
0.0683
0.0683
0.0733
0.0733
0.0783
0.0800
0.0867
0.0867
0.0917
0.0917
0.0933
0.0917
0.0933
0.0917
0.0967
0.0967
0.1050
0.1050
0.1150
0.1133
0.1283
0.1283
0.1417
0.1417
0.1517
0.1517
0.1583
0.1583
0.1633
0.1650
0.1600
0.1583
0.1650
0.1650
0.1700
0.1700
0.1750
0.1767
0.1850
0.1850
0.1900
0.1883
0.1967
0.1967
0.2150
0.2167
0.2367
0.2383
0.2717
0.2733
0.3400
0.3400
0.3850
0.3667
0.0867
0.0767
0.1167
0.0900
0.1700
0.1
0.1750
0.2550
0.2567
0.2667
0.2633
0.2250
0.2217
0.1783
0.1783
0.1517
0.1517
0.1417
0.1400
0.1333
0.1350
0.1300
0.1300
0.1267
0.1267
0.1217
0.1233
0.1200
0.1200
0.1217
0.1233
0.1200
0.1217
0.1167
0.1183
0.1200
0.1183
0.1200
0.1200
0.1167
0.1167
0.1117
0.1117
0.1083
0.1083
0.1033
0.1050
0.1017
0.1050
0.1133
0.1133
0.1233
0.1233
0.1317
0.1317
0.1333
0.1333
0.1367
0.1350
0.1333
0.1350
0.1317
0.1333
0.1233
0.1233
0.1150
0.1150
0.0967
0.0967
0.0867
0.0850
0.0767
0.0767
0.0717
0.0733
0.0750
0.0750
0.0800
0.0800
0.0833
0.0833
0.0817
0.0817
0.0783
0.0800
0.0750
0.0750
0.0717
0.0717
0.0667
0.0667
0.0700
0.0650
0.0633
0.0633
0.0617
0.0617
0.0650
0.0650
0.0600
0.0600
0.0517
0.0533
0.0483
0.0483
0.0467
0.0500
0.0467
0.0483
0.0450
0.0483
0.0433
0.0450
0.0400
0.0417
0.0383
0.0383
0.0417
0.0400
0.0450
0.0467
0.0533
0.0533
0.0767
0.0783
0.1433
0.1450
-0.0283
-0.0250
0.0117
0.0133
0.0333
0.0350
0.0383
0.0383
0.0283
0.0267
0.0233
0.0217
0.0267
0.0267
0.0317
0.0317
0.0333
0.0333
0.0283
0.0300
0.0267
0.0267
0.0183
0.0183
0.0083
0.0083
-0.0017
-0.0017
-0.0417
-0.0450
-0.1233
-0.1267
-0.1417
-0.1350
-0.0283
-0.0250
0.0567
0.0583
0.0783
0.0750
0.0450
0.0450
0.0217
0.0200
0.0100
0.0100
0.0050
0.0050
0.0067
0.0083
0.0133
0.0150
0.0183
0.0167
0.0200
0.0200
0.0250
0.0250
0.0183
0.0167
0.0067
0.0050
-0.0033
-0.0033
0.0017
0.0017
0.0133
0.0133
0.0200
0.0200
0.0367
0.0367
0.0650
0.0667
0.0900
0.0800
0.0167
0.0300
0.2183
0.0133
0.2267
0.2017
-0.1750
-0.1817
-0.2583
-0.2233
-0.1000
-0.0950
-0.0433
-0.0417
-0.0500
-0.0533
-0.0417
-0.0417
-0.0283
-0.0283
-0.0350
-0.0317
-0.0383
-0.0383
-0.0333
-0.0333
-0.0250
-0.0233
-0.0217
-0.0217
-0.0333
-0.0333
-0.0283
-0.0267
-0.0217
-0.0250
-0.0183
-0.0217
-0.0267
-0.0217
-0.0317
-0.0333
-0.1017
-0.1200
-0.0800
-0.0767
0.0200
0.0217
0.0483
0.0467
0.0133
0.0117
-0.0150
-0.0150
-0.0317
-0.0317
-0.0400
-0.0400
-0.0467
-0.0450
-0.0467
-0.0450
-0.0367
-0.0367
-0.0267
-0.0267
-0.0150
-0.0150
-0.0067
-0.0067
-0.0017
-0.0033
0.0017
-0.0033
-0.0100
-0.0117
-0.0183
-0.0183
-0.0233
-0.0233
-0.0250
-0.0250
-0.0317
-0.0317
-0.0400
-0.0400
-0.0433
-0.0417
-0.0367
-0.0383
-0.0283
-0.0267
-0.0183
-0.0183
-0.0117
-0.0100
-0.0150
-0.0167
-0.0350
-0.0367
-0.0567
-0.0567
-0.0667
-0.0683
-0.0600
-0.0583
-0.0467
-0.0483
-0.0417
-0.0433
-0.0417
-0.0433
-0.0333
-0.0333
-0.0217
-0.0217
-0.0100
-0.0083
-0.0133
-0.0133
-0.0167
-0.0167
-0.0300
-0.0317
-0.0350
-0.0333
-0.0300
-0.0283
-0.0250
-0.0250
-0.0300
-0.0267
-0.0383
-0.0367
-0.0467
-0.0467
-0.0517
-0.0500
-0.0533
-0.0517
-0.0433
-0.0433
-0.0350
-0.0350
-0.0283
-0.0283
-0.0250
-0.0267
-0.0300
-0.0300
-0.0267
-0.0283
-0.0283
-0.0283
-0.0333
-0.0300
-0.0333
-0.0333
-0.0383
-0.0383
-0.0433
-0.0417
-0.0450
-0.0433
-0.0400
-0.0400
-0.0367
-0.0350
-0.0383
-0.0383
-0.0433
-0.0433
-0.0500
-0.0483
-0.0583
-0.0583
-0.0650
-0.0650
-0.0683
-0.0683
-0.0633
-0.0633
-0.0567
-0.0567
-0.0550
-0.0550
-0.0567
-0.0567
-0.0550
-0.0550
-0.0583
-0.0583
-0.0583
-0.0567
-0.0600
-0.0583
-0.0600
-0.0583
-0.0617
-0.0583
-0.0600
-0.0583
-0.0567
-0.0583
-0.0617
-0.0600
-0.0517
-0.0500
-0.0383
-0.0383
-0.0267
-0.0267
-0.0200
-0.0183
-0.0083
-0.0083
0.0033
0.0033
0.0150
0.0150
0.0317
0.0333
0.0683
0.0717
0.1217
0.1517
0.0417
0.0267
-0.1283
-0.0700
-0.1067
-0.0850
0.0017
0.0050
0.0567
0.0567
0.0300
0.0283
-0.0200
-0.0217
-0.0900
-0.0950
-0.1967
-0.2000
-0.2367
-0.2333
-0.1333
-0.1283
-0.0400
-0.0367
0.0200
0.0217
0.0467
0.0500
-0.1517
-0.1550
-0.1300
-0.1283
-0.0933
-0.0917
-0.0700
-0.0683
-0.0583
-0.0567
-0.0483
-0.0483
-0.0350
-0.0333
-0.0183
-0.0183
-0.0067
-0.0067
-0.0017
-0.0067
-0.0133
-0.0133
-0.0200
-0.0200
-0.0300
-0.0300
-0.0367
-0.0367
-0.0400
-0.0433
-0.0367
-0.0367
-0.0300
-0.0317
-0.0267
-0.0283
-0.0250
-0.0267
-0.0233
-0.0250
-0.0233
-0.0233
-0.0200
-0.0183
-0.0117
-0.0100
-0.0167
-0.0183
-0.0600
-0.0617
-0.1017
-0.1033
-0.0500
-0.0467
0.0133
0.0200
0.0133
0.0083
0.0150
0.0167
0.0283
0.0300
0.0500
0.0500
0.0700
0.0300
0.1300
0.1867
-0.0400
0.2067
-0.0750
-0.1000
-0.1667
-0.1817
-0.1000
-0.0967
-0.0417
-0.0400
-0.0317
-0.0300
-0.0233
-0.0233
-0.0083
-0.0067
0.0067
0.0083
0.0117
0.0117
0.0183
0.0200
0.0150
0.0150
0.0083
0.0100
0.0050
0.0067
0.0017
0.0017
-0.0167
-0.0167
-0.0333
-0.0333
-0.0383
-0.0350
-0.0383
-0.0367
-0.0333
-0.0350
-0.0283
-0.0283
-0.0217
-0.0233
-0.0183
-0.0183
-0.0133
-0.0150
-0.0100
-0.0083
-0.0117
-0.0100
-0.0067
-0.0067
-0.0100
-0.0067
-0.0083
-0.0067
-0.0083
-0.0083
-0.0167
-0.0167
-0.0233
-0.0250
-0.0317
-0.0300
-0.0283
-0.0300
-0.0333
-0.0333
-0.0283
-0.0300
-0.0250
-0.0250
-0.0267
-0.0250
-0.0283
-0.0250
-0.0283
-0.0283
-0.0317
-0.0317
-0.0267
-0.0267
-0.0167
-0.0167
-0.0050
-0.0050
0.0067
0.0067
0.0217
0.0233
0.0350
0.0350
0.0283
0.0267
0.0200
0.0217
0.0167
0.0167
0.0117
0.0100
0.0067
0.0083
0.0117
0.0100
0.0083
0.0083
0.0050
0.0050
0.0083
0.0083
0.0067
0.0067
0.0033
0.0050
0.0033
0.0033
-0.0017
-0.0017
0.0017
0.0000
-0.0017
0.0017
-0.0017
0.0000
-0.0033
-0.0017
-0.0050
-0.0050
-0.0083
-0.0083
-0.0100
-0.0100
-0.0117
-0.0117
-0.0133
-0.0133
-0.0083
-0.0083
-0.0050
-0.0050
-0.0083
-0.0083
-0.0050
-0.0050
-0.0033
-0.0033
0.0000
0.0000
0.0017
0.0017
0.0050
0.0050
0.0067
0.0067
0.0050
0.0050
0.0000
-0.0017
0.0017
0.0000
-0.0033
-0.0033
-0.0050
-0.0067
-0.0033
-0.0033
0.0033
0.0017
0.0050
0.0033
-0.0017
-0.0017
-0.0100
-0.0100
-0.0133
-0.0133
-0.0183
-0.0200
-0.0167
-0.0167
-0.0083
-0.0100
-0.0050
-0.0067
-0.0017
-0.0050
-0.0133
-0.0133
-0.0300
-0.0300
-0.0333
-0.0317
-0.0350
-0.0317
-0.0250
-0.0250
-0.0217
-0.0233
-0.0133
-0.0117
-0.0350
-0.0367
-0.1267
-0.1267
-0.0600
-0.0567
0.0317
0.0350
0.0783
0.0817
0.0700
0.0683
0.0433
0.0417
0.0233
0.0217
0.0117
0.0117
0.0150
0.0133
0.0167
0.0167
0.0167
0.0167
0.0133
0.0117
0.0000
0.0000
-0.0083
-0.0083
-0.0100
-0.0083
-0.0033
-0.0033
0.0017
0.0017
0.0033
0.0017
-0.0100
-0.0100
-0.0217
-0.0217
-0.0267
-0.0267
-0.0317
-0.0317
-0.0283
-0.0317
-0.0300
-0.0317
-0.0283
-0.0300
-0.0267
-0.0283
-0.0350
-0.0317
-0.0350
-0.0333
-0.0267
-0.0267
-0.0250
-0.0250
-0.0283
-0.0300
-0.0267
-0.0300
-0.0267
-0.0283
-0.0200
-0.0217
-0.0183
-0.0200
-0.0267
-0.0267
-0.0733
-0.0767
-0.1533
-0.1567
-0.1333
-0.1283
-0.0317
-0.0283
0.0450
0.0467
0.0567
0.0467
0.0133
0.0117
-0.0117
-0.0133
-0.0217
-0.0217
-0.0250
-0.0233
-0.0267
-0.0267
-0.0317
-0.0317
-0.0350
-0.0333
-0.0300
-0.0300
-0.0250
-0.0250
-0.0233
-0.0217
-0.0250
-0.0233
-0.0250
-0.0250
-0.0233
-0.0233
-0.0267
-0.0250
-0.0200
-0.0200
-0.0167
-0.0167
0.0017
0.0033
0.0517
0.0567
-0.1150
-0.1150
-0.0750
-0.0733
-0.0367
-0.0350
-0.0150
-0.0167
-0.0117
-0.0117
0.0083
0.0100
0.0300
0.0300
0.0417
0.0433
0.0367
0.0333
0.0633
0.0667
0.1650
0.1650
-0.0083
-0.0133
-0.0650
-0.0683
0.0067
0.0150
0.1317
0.1333
0.1500
0.1383
0.0833
0.0817
0.0217
0.0200
-0.0033
-0.0033
0.0033
0.0017
-0.0683
-0.0933
0.1017
0.1033
-0.0867
0.1350
-0.2117
-0.1967
-0.2600
-0.2483
-0.1350
-0.1300
-0.0733
-0.0733
-0.0600
-0.0600
-0.0517
-0.0517
-0.0417
-0.0417
-0.0350
-0.0367
-0.0333
-0.0333
-0.0350
-0.0350
-0.0300
-0.0317
-0.0283
-0.0283
-0.0250
-0.0250
-0.0217
-0.0200
-0.0167
-0.0183
-0.0200
-0.0200
-0.0150
-0.0150
-0.0117
-0.0100
0.0000
0.0000
0.0083
0.0083
0.0133
0.0133
0.0183
0.0183
0.0233
0.0233
0.0300
0.0300
0.0333
0.0317
0.0350
0.0350
0.0383
0.0350
0.0233
0.0233
0.0000
0.0000
-0.0117
-0.0117
-0.0167
-0.0133
-0.0083
-0.0083
0.0000
0.0000
0.0067
0.0083
0.0150
0.0150
0.0217
0.0200
0.0300
0.0283
0.0350
0.0333
0.0367
0.0367
0.0400
0.0400
0.0367
0.0383
0.0300
0.0300
0.0267
0.0267
0.0333
0.0333
0.0400
0.0400
0.0383
0.0417
0.0467
0.0467
0.0433
0.0450
0.0417
0.0417
0.0383
0.0383
0.0433
0.0433
0.0500
0.0500
0.0650
0.0667
0.0800
0.0783
0.0733
0.0767
0.0683
0.1
0.0667
0.0583
0.0567
0.0400
0.0417
0.0300
0.0300
0.0333
0.0333
0.0317
0.0317
0.0250
0.0250
0.0217
0.0233
0.0200
0.0233
0.0300
0.0283
0.0333
0.0333
0.0367
0.0367
0.0383
0.0383
0.0350
0.0367
0.0317
0.0333
0.0283
0.0267
0.0317
0.0317
0.0383
0.0400
0.0483
0.0483
0.0583
0.0600
0.0533
0.0533
0.0467
0.0467
0.0433
0.0450
0.0417
0.0450
0.0500
0.0483
0.0567
0.0567
0.0500
0.0500
0.0417
0.0417
0.0333
0.0333
0.0250
0.0267
0.0400
0.0400
0.0533
0.0533
0.0500
0.0533
0.0483
0.0500
0.0467
0.0467
0.0500
0.0467
0.0450
0.0467
0.0450
0.0450
0.0483
0.0500
0.0550
0.0550
0.0600
0.0600
0.0617
0.0583
0.0500
0.0483
0.0367
0.0400
0.0350
0.0350
0.0367
0.0350
0.0367
0.0367
0.0400
0.0383
0.0367
0.0367
0.0333
0.0333
0.0267
0.0267
0.0300
0.0283
0.0350
0.0350
0.0367
0.0350
0.0200
0.0183
-0.0017
-0.0033
-0.0167
-0.0183
-0.0300
-0.0317
-0.0283
-0.0283
-0.0183
-0.0183
-0.0117
-0.0117
-0.0033
-0.0033
0.0050
0.0067
-0.0083
-0.0100
-0.0683
-0.0717
-0.1250
-0.1200
-0.0617
-0.0567
0.0250
0.0283
0.0800
0.0833
0.0617
0.0600
0.0267
0.0250
0.0083
0.0067
-0.0017
-0.0017
-0.0050
-0.0050
-0.0067
-0.0083
-0.0050
-0.0033
-0.0067
-0.0033
-0.0100
-0.0100
-0.0133
-0.0100
-0.0133
-0.0150
-0.0167
-0.0150
-0.0250
-0.0283
-0.0200
-0.0267
-0.0900
-0.0950
-0.1217
-0.1000
0.0033
0.0067
0.0533
0.0550
0.0483
0.0483
0.0350
0.0333
0.0250
0.0233
0.0250
0.0250
0.0233
0.0233
0.0183
0.0167
0.0133
0.0167
0.0117
0.0150
0.0133
0.0150
0.0400
0.0433
0.0717
0.0717
-0.1317
-0.1350
-0.1200
-0.1200
-0.0967
-0.0950
-0.0833
-0.0817
-0.0683
-0.0667
-0.0567
-0.0567
-0.0617
-0.0633
-0.0933
-0.0933
-0.1033
-0.0983
0.0000
0.0050
0.0850
0.0900
0.0767
0.0750
0.0667
0.0683
0.0650
0.0650
0.0483
0.0533
0.0417
0.0417
0.0367
0.0383
0.0333
0.0350
0.0483
0.0483
0.0583
0.0517
-0.0283
-0.0233
0.1733
0.0017
0.1767
0.0917
-0.2100
-0.1750
-0.2383
-0.1983
-0.1300
-0.1283
-0.1033
-0.1033
-0.0933
-0.0917
-0.0800
-0.0800
-0.0667
-0.0683
-0.0517
-0.0500
-0.0350
-0.0350
-0.0200
-0.0200
-0.0117
-0.0117
-0.0100
-0.0117
-0.0083
-0.0117
-0.0017
-0.0017
0.0133
0.0133
0.0167
0.0117
0.0167
0.0150
0.0200
0.0167
0.0217
0.0217
0.0333
0.0333
0.0583
0.0600
0.0950
0.0967
0.1567
0.1600
0.2383
0.2467
0.0783
0.0650
-0.1033
-0.1583
-0.0900
-0.0833
0.0200
0.0233
0.0517
0.0483
0.0067
0.0033
-0.0433
-0.0450
-0.0783
-0.0800
-0.0983
-0.1000
-0.1083
-0.1083
-0.1133
-0.1150
-0.1200
-0.1183
-0.1217
-0.1200
-0.1167
-0.1167
-0.1050
-0.1050
-0.0917
-0.0917
-0.0733
-0.0733
-0.0600
-0.0600
-0.0483
-0.0483
-0.0450
-0.0483
-0.0450
-0.0450
-0.0367
-0.0367
-0.0350
-0.0350
-0.0350
-0.0367
-0.0333
-0.0333
-0.0267
-0.0283
-0.0250
-0.0250
-0.0333
-0.0317
-0.0367
-0.0367
-0.0433
-0.0450
-0.0550
-0.0533
-0.0650
-0.0650
-0.0700
-0.0683
-0.0600
-0.0600
-0.0417
-0.0400
-0.0183
-0.0167
-0.0050
-0.0050
-0.0083
-0.0067
-0.0033
-0.0033
-0.0017
-0.0050
0.0000
0.0000
-0.0083
-0.0083
-0.0183
-0.0183
-0.0267
-0.0267
-0.0300
-0.0267
-0.0183
-0.0183
-0.0067
-0.0083
-0.0017
-0.0033
0.0000
0.0000
0.0017
0.0017
-0.0033
-0.0050
0.0000
-0.0017
-0.0033
-0.0033
-0.0050
-0.0067
-0.0033
-0.0050
-0.0150
-0.0150
-0.0183
-0.0183
-0.0150
-0.0150
-0.0117
-0.0117
-0.0067
-0.0083
-0.0050
-0.0067
-0.0050
-0.0033
0.0017
0.0017
0.0050
0.0000
0.0033
0.0017
0.0083
0.0083
0.0233
0.0250
0.0500
0.0500
0.0683
0.0683
0.0717
0.0683
0.0617
0.0600
0.0567
0.0567
0.0517
0.0517
0.0483
0.0483
0.0500
0.0500
0.0467
0.0483
0.0450
0.0467
0.0500
0.0500
0.0567
0.0567
0.0583
0.0583
0.0617
0.0600
0.0617
0.0583
0.0617
0.0617
0.0583
0.0617
0.0683
0.0733
0.0667
0.0650
0.0250
0.0217
-0.0600
-0.0700
-0.0550
-0.0533
0.0233
0.0267
0.0917
0.0950
0.1117
0.1083
0.0950
0.0950
0.0833
0.0850
0.0750
0.0750
0.0600
0.0600
0.0500
0.0500
0.0467
0.0467
0.0500
0.0500
0.0550
0.0550
0.0533
0.0550
0.0517
0.0500
0.0467
0.0450
0.0500
0.0500
0.0483
0.0500
0.0467
0.0483
0.0417
0.0417
0.0383
0.0400
0.0367
0.0417
0.0433
0.0450
0.0500
0.0500
0.0550
0.0533
0.0517
0.0533
0.0450
0.0450
0.0350
0.0350
0.0250
0.0250
0.0183
0.0183
0.0100
0.0100
0.0050
0.0050
0.0017
0.0017
0.0033
0.0000
0.0033
0.0017
0.0067
0.0050
0.0150
0.0150
0.0317
0.0333
0.0467
0.0483
0.0583
0.0583
0.0500
0.0500
0.0367
0.0367
0.0250
0.0250
0.0183
0.0183
0.0150
0.0150
0.0167
0.0167
0.0133
0.0133
0.0100
0.0133
0.0100
0.0100
0.0067
0.0083
0.0100
0.0083
0.0117
0.0133
0.0100
0.0133
0.0150
0.0150
0.0117
0.0133
0.0083
0.0100
0.0050
0.0050
-0.0017
-0.0017
-0.0283
-0.0300
-0.0633
-0.0667
-0.0367
-0.0333
0.0383
0.0400
0.0533
0.0483
0.0350
0.0367
0.0417
0.0417
0.0350
0.0350
0.0283
0.0267
0.0100
0.0100
0.0033
0.0017
-0.0033
-0.0033
0.0000
0.0000
0.0033
0.0017
0.0067
0.0067
0.0167
0.0150
0.0183
0.0167
0.0217
0.0217
0.0233
0.0233
0.0267
0.0267
0.0383
0.0383
0.0483
0.0483
0.0717
0.0750
0.1117
0.1117
-0.0583
-0.0567
-0.0167
-0.0150
0.0250
0.0250
0.0550
0.0700
0.0333
-0.0300
0.0400
0.0800
-0.0967
0.1567
-0.0800
-0.0800
-0.1317
-0.1333
-0.0617
-0.0583
-0.0233
-0.0233
-0.0283
-0.0283
-0.0367
-0.0367
-0.0450
-0.0433
-0.0417
-0.0400
-0.0300
-0.0283
-0.0167
-0.0167
-0.0100
-0.0100
-0.0033
-0.0033
0.0017
0.0017
0.0033
0.0033
-0.0033
-0.0050
-0.0083
-0.0067
-0.0033
-0.0050
-0.0033
-0.0050
-0.0083
-0.0083
-0.0133
-0.0133
-0.0167
-0.0150
-0.0217
-0.0217
-0.0283
-0.0283
-0.0317
-0.0333
-0.0283
-0.0283
-0.0217
-0.0217
-0.0167
-0.0167
-0.0150
-0.0150
-0.0183
-0.0183
-0.0183
-0.0200
-0.0150
-0.0167
-0.0117
-0.0133
-0.0050
-0.0050
0.0000
0.0000
0.0017
0.0017
0.0000
0.0000
-0.0100
-0.0100
-0.0233
-0.0233
-0.0333
-0.0333
-0.0267
-0.0267
-0.0183
-0.0150
-0.0200
-0.0200
-0.0083
-0.0083
0.0033
0.0033
0.0050
0.0017
-0.0033
-0.0017
0.0017
-0.0017
0.0100
0.0100
0.0283
0.0300
0.0500
0.0517
0.0800
0.0817
0.1433
0.1433
0.1850
0.1617
-0.1250
-0.1417
-0.1250
-0.1267
-0.0717
-0.0667
0.0300
0.0333
0.0517
0.0483
0.0183
0.0167
-0.0250
-0.0267
-0.0533
-0.0550
-0.0683
-0.0683
-0.0817
-0.0817
-0.0850
-0.0850
-0.0767
-0.0783
-0.0667
-0.0650
-0.0533
-0.0517
-0.0433
-0.0417
-0.0317
-0.0333
-0.0450
-0.0450
-0.0517
-0.0517
-0.0567
-0.0583
-0.0917
-0.0950
-0.1717
-0.1750
-0.1883
-0.1767
-0.0683
-0.0650
0.0350
0.0400
0.0850
0.0867
0.0650
0.0633
0.0217
0.0200
-0.0100
-0.0100
-0.0200
-0.0217
-0.0250
-0.0250
-0.0267
-0.0250
-0.0283
-0.0267
-0.0217
-0.0233
-0.0183
-0.0183
-0.0167
-0.0167
-0.0133
-0.0117
-0.0050
-0.0067
-0.0033
-0.0067
-0.0100
-0.0100
-0.0083
-0.0100
-0.0150
-0.0150
-0.0200
-0.0200
-0.0317
-0.0317
-0.0283
-0.0283
-0.0200
-0.0217
-0.0167
-0.0167
-0.0150
-0.0133
-0.0083
-0.0067
0.0017
0.0017
0.0033
0.0017
-0.0033
-0.0050
-0.0150
-0.0167
-0.0350
-0.0350
-0.0417
-0.0417
-0.0367
-0.0367
-0.0250
-0.0250
-0.0167
-0.0167
-0.0267
-0.0267
-0.0333
-0.0333
-0.0383
-0.0367
-0.0400
-0.0400
-0.0450
-0.0467
-0.0433
-0.0433
-0.0400
-0.0400
-0.0383
-0.0383
-0.0333
-0.0333
-0.0283
-0.0283
-0.0217
-0.0217
-0.0167
-0.0167
-0.0100
-0.0100
-0.0017
-0.0017
0.0133
0.0133
0.0333
0.0350
0.0433
0.0417
0.0283
0.0283
0.0117
0.0117
0.0017
0.0017
-0.0067
-0.0067
-0.0167
-0.0183
-0.0567
-0.0583
-0.0783
-0.0767
-0.0117
-0.0083
0.0433
0.0433
0.0283
0.0267
0.0167
0.0183
0.0167
0.0150
0.0033
0.0033
-0.0083
-0.0083
-0.0117
-0.0117
-0.0083
-0.0100
-0.0067
-0.0100
-0.0083
-0.0083
-0.0083
-0.0067
-0.0100
-0.0100
-0.0067
-0.0083
-0.0100
-0.0083
-0.0100
-0.0083
-0.0050
-0.0067
-0.0050
-0.0067
-0.0117
-0.0117
-0.0167
-0.0150
-0.0183
-0.0183
-0.0150
-0.0167
-0.0133
-0.0133
-0.0100
-0.0100
-0.0050
-0.0067
-0.0017
-0.0033
-0.0017
-0.0017
0.0033
0.0033
0.0100
0.0100
0.0150
0.0150
0.0367
0.0400
0.1000
0.1017
-0.0567
-0.0550
-0.0183
-0.0167
0.0067
0.0067
0.0217
0.0217
0.0283
0.0283
0.0300
0.0283
0.0350
0.0367
0.0633
0.0650
0.0850
0.0783
0.0083
0.0100
0.1667
0.0017
0.1867
0.1967
-0.1267
-0.1133
-0.1767
0.1
-0.1450
-0.0683
-0.0667
-0.0367
-0.0367
-0.0267
-0.0267
-0.0250
-0.0250
-0.0300
-0.0300
-0.0233
-0.0250
-0.0133
-0.0117
-0.0017
0.0000
0.0133
0.0133
0.0267
0.0283
0.0367
0.0383
0.0283
0.0283
0.0100
0.0083
0.0017
0.0017
0.0050
0.0033
0.0083
0.0083
0.0033
0.0033
-0.0033
-0.0017
-0.0117
-0.0133
-0.0067
-0.0083
-0.0333
-0.0350
-0.0883
-0.0800
0.0067
0.0117
0.0717
0.0750
0.0683
0.0683
0.0450
0.0450
0.0317
0.0317
0.0283
0.0317
0.0333
0.0333
0.0417
0.0400
0.0433
0.0417
0.0433
0.0417
0.0400
0.0400
0.0317
0.0317
0.0183
0.0167
0.0100
0.0100
0.0033
0.0033
0.0067
0.0050
0.0083
0.0067
0.0017
0.0017
-0.0017
0.0000
-0.0100
-0.0083
-0.0150
-0.0133
-0.0150
-0.0150
-0.0200
-0.0200
-0.0217
-0.0200
-0.0100
-0.0100
0.0067
0.0067
0.0200
0.0200
0.0350
0.0350
0.0400
0.0383
0.0350
0.0367
0.0267
0.0250
0.0167
0.0133
0.0250
0.0267
0.0417
0.0417
0.0517
0.0517
0.0567
0.0567
0.0500
0.0500
0.0367
0.0350
0.0167
0.0150
-0.0100
-0.0117
-0.0500
-0.0517
-0.1200
-0.1233
-0.1650
-0.1667
-0.0733
-0.0667
0.0483
0.0517
0.1050
0.1050
0.0717
0.0683
0.0267
0.0250
-0.0050
-0.0067
-0.0250
-0.0267
-0.0383
-0.0400
-0.0350
-0.0350
-0.0383
-0.0383
-0.0250
-0.0233
-0.0100
-0.0083
0.0000
-0.0017
0.0050
0.0050
0.0083
0.0100
0.0167
0.0167
0.0333
0.0350
0.0600
0.0617
0.1083
0.1100
0.1800
0.1817
0.2150
0.1833
-0.0917
-0.1050
-0.0617
-0.0567
-0.0100
-0.0050
0.0667
0.0733
0.0650
0.0633
0.0200
0.0183
-0.0217
-0.0233
-0.0517
-0.0517
-0.0700
-0.0717
-0.0883
-0.0883
-0.0983
-0.0983
-0.1083
-0.1083
-0.1117
-0.1083
-0.0967
-0.0967
-0.0850
-0.0850
-0.0733
-0.0733
-0.0667
-0.0667
-0.0617
-0.0617
-0.0583
-0.0583
-0.0633
-0.0633
-0.0600
-0.0600
-0.0567
-0.0567
-0.0450
-0.0467
-0.0400
-0.0400
-0.0300
-0.0300
-0.0150
-0.0150
0.0000
0.0017
0.0150
0.0150
0.0200
0.0183
0.0217
0.0200
0.0150
0.0150
0.0083
0.0083
0.0050
0.0033
0.0083
0.0083
0.0200
0.0217
0.0367
0.0367
0.0433
0.0417
0.0350
0.0333
0.0083
0.0067
-0.0250
-0.0267
-0.0450
-0.0467
-0.0400
-0.0383
-0.0233
-0.0217
-0.0100
-0.0100
-0.0033
-0.0033
0.0000
-0.0017
0.0017
0.0017
-0.0033
-0.0017
-0.0083
-0.0083
-0.0100
-0.0117
-0.0167
-0.0167
-0.0150
-0.0150
-0.0100
-0.0117
-0.0050
-0.0067
-0.0033
-0.0033
-0.0067
-0.0083
-0.0183
-0.0183
-0.0267
-0.0283
-0.0250
-0.0267
-0.0233
-0.0233
-0.0183
-0.0167
-0.0100
-0.0067
-0.0117
-0.0133
-0.0483
-0.0500
-0.0917
-0.1017
-0.0733
-0.0700
0.0050
0.0067
0.0183
0.0117
-0.0033
-0.0017
0.0033
0.0067
0.0000
-0.0017
-0.0050
-0.0050
-0.0167
-0.0150
-0.0083
-0.0083
0.0033
0.0033
0.0167
0.0167
0.0267
0.0267
0.0250
0.0267
0.0300
0.0317
0.0217
0.0217
0.0150
0.0150
0.0233
0.0250
0.0350
0.0367
0.0650
0.0667
0.1000
0.1017
0.0567
0.0550
0.1800
-0.0150
0.1533
0.1617
-0.1483
-0.0917
-0.1267
-0.0950
-0.2017
-0.1750
-0.1000
-0.0983
-0.0550
-0.0533
-0.0333
-0.0333
-0.0283
-0.0283
-0.0233
-0.0250
-0.0217
-0.0217
-0.0233
-0.0233
-0.0100
-0.0100
-0.0017
-0.0017
0.0000
0.0000
-0.0083
-0.0083
-0.0183
-0.0183
-0.0233
-0.0233
-0.0250
-0.0233
-0.0167
-0.0150
-0.0050
-0.0050
0.0017
0.0033
0.0083
0.0050
0.0083
0.0067
0.0100
0.0100
0.0083
0.0083
0.0033
0.0033
0.0017
0.0017
0.0100
0.0117
0.0150
0.0150
0.0133
0.0133
0.0050
0.0033
-0.0033
-0.0033
-0.0067
-0.0050
-0.0083
-0.0067
-0.0033
-0.0033
0.0033
0.0017
0.0100
0.0100
0.0250
0.0250
0.0317
0.0300
0.0233
0.0233
0.0200
0.0217
0.0250
0.0233
0.0250
0.0233
0.0200
0.0200
0.0117
0.0133
0.0083
0.0083
0.0050
0.0050
0.0083
0.0083
0.0017
0.0000
-0.0400
-0.0433
-0.1233
-0.1267
-0.1317
-0.1250
-0.0333
-0.0300
0.0250
0.0267
0.0417
0.0383
0.0083
0.0067
-0.0650
-0.0717
-0.0150
-0.0117
0.0717
0.0750
0.0950
0.0917
0.0583
0.0567
0.0333
0.0333
0.0300
0.0283
0.0333
0.0350
0.0417
0.0417
0.0383
0.0400
0.0350
0.0350
0.0333
0.0333
0.0283
0.0283
0.0183
0.0183
0.0100
0.0083
0.0050
0.0067
0.0100
0.0083
0.0133
0.0133
0.0117
0.0133
0.0150
0.0150
0.0133
0.0150
0.0183
0.0167
0.0183
0.0183
0.0150
0.0150
0.0183
0.0167
0.0200
0.0200
0.0167
0.0167
0.0200
0.0183
0.0167
0.0183
0.0167
0.0183
0.0133
0.0133
0.0100
0.0100
0.0067
0.0083
0.0067
0.0067
0.0050
0.0050
0.0083
0.0083
0.0067
0.0067
0.0050
0.0050
0.0100
0.0100
0.0083
0.0083
0.0067
0.0083
0.0050
0.0050
0.0100
0.0100
0.0133
0.0150
0.0133
0.0150
0.0167
0.0150
0.0083
0.0083
0.0017
0.0000
-0.0067
-0.0083
-0.0133
-0.0100
-0.0133
-0.0133
-0.0150
-0.0133
-0.0150
-0.0133
-0.0150
-0.0117
-0.0150
-0.0133
-0.0167
-0.0167
-0.0133
-0.0150
-0.0067
-0.0067
-0.0017
-0.0017
0.0117
0.0117
0.0183
0.0167
0.0200
0.0200
0.0233
0.0217
0.0167
0.0183
0.0117
0.0117
0.0200
0.0200
0.0283
0.0267
0.0400
0.0383
0.0417
0.0400
0.0350
0.0350
0.0250
0.0250
0.0233
0.0233
0.0350
0.0350
0.0417
0.0417
0.0450
0.0433
0.0517
0.0517
0.0600
0.0617
0.0800
0.0800
0.1050
0.1067
0.1400
0.1417
0.1950
0.1983
0.2567
0.2567
0.0267
0.0133
-0.0750
-0.0333
-0.0567
-0.0350
0.0600
0.0633
0.0817
0.0767
0.0283
0.0267
-0.0283
-0.0317
-0.0733
-0.0750
-0.1033
-0.1050
-0.1133
-0.1133
-0.1033
-0.1017
-0.0883
-0.0883
-0.1067
-0.1083
-0.1333
-0.1350
-0.0900
-0.0867
-0.0133
-0.0117
0.0017
-0.0017
0.0017
0.0033
0.0233
0.0267
0.0217
0.0217
0.0150
0.0133
0.0067
0.0067
0.0050
0.0067
0.0083
0.0083
0.0100
0.0100
0.0117
0.0117
0.0133
0.0133
0.0183
0.0167
0.0250
0.0233
0.0267
0.0267
0.0283
0.0283
0.0250
0.0267
0.0233
0.0250
0.0150
0.0150
0.0017
0.0017
-0.0050
-0.0033
0.0000
0.0017
0.0083
0.0083
0.0117
0.0100
0.0000
0.0000
-0.0067
-0.0083
-0.0117
-0.0100
-0.0067
-0.0083
-0.0050
-0.0050
-0.0067
-0.0033
0.0050
0.0067
0.0183
0.0200
0.0367
0.0383
0.0633
0.0650
0.1067
0.1100
0.1450
0.1517
0.1000
0.1133
0.3233
0.1683
0.0333
0.0417
-0.1933
-0.2167
-0.1533
-0.1483
-0.0733
-0.0717
-0.0517
-0.0517
-0.0433
-0.0433
-0.0350
-0.0383
-0.0317
-0.0317
-0.0350
-0.0333
-0.0367
-0.0350
-0.0283
-0.0283
-0.0183
-0.0167
-0.0033
-0.0033
0.0067
0.0083
0.0117
0.0100
0.0033
0.0033
0.0000
0.0033
0.0100
0.0100
0.0167
0.0167
0.0117
0.0117
0.0083
0.0083
0.0033
0.0033
-0.0017
-0.0017
-0.0100
-0.0117
-0.0150
-0.0150
-0.0133
-0.0133
-0.0117
-0.0133
-0.0183
-0.0183
-0.0167
-0.0167
-0.0117
-0.0117
-0.0083
-0.0100
-0.0083
-0.0100
-0.0083
-0.0083
-0.0033
-0.0033
0.0017
0.0000
0.0050
0.0050
0.0000
-0.0017
-0.0533
-0.0550
-0.1333
-0.1383
-0.1050
-0.1000
0.0017
0.0050
0.0750
0.0833
0.0717
0.0700
0.0417
0.0417
0.0250
0.0250
0.0183
0.0183
0.0100
0.0083
-0.0017
-0.0017
-0.0117
-0.0117
-0.0050
-0.0050
0.0183
0.0200
0.0367
0.0367
0.0300
0.0283
0.0167
0.0167
-0.0083
-0.0117
-0.0417
-0.0433
-0.0617
-0.0633
-0.0567
-0.0550
-0.0450
-0.0450
-0.0350
-0.0350
-0.0333
-0.0350
-0.0333
-0.0333
-0.0317
-0.0333
-0.0400
-0.0383
-0.0433
-0.0450
-0.0383
-0.0367
-0.0517
-0.0550
-0.1133
-0.1083
-0.0533
-0.0483
0.0267
0.0283
0.0433
0.0417
0.0350
0.0333
0.0250
0.0250
0.0217
0.0233
0.0167
0.0183
0.0117
0.0117
0.0050
0.0033
0.0000
0.0000
-0.0083
-0.0083
-0.0133
-0.0150
-0.0200
-0.0183
-0.0250
-0.0250
-0.0267
-0.0250
-0.0283
-0.0283
-0.0350
-0.0350
-0.0383
-0.0367
-0.0383
-0.0383
-0.0367
-0.0367
-0.0283
-0.0283
-0.0183
-0.0183
-0.0067
-0.0067
0.0000
-0.0017
-0.0067
-0.0067
-0.0050
-0.0067
-0.0117
-0.0100
-0.0117
-0.0100
-0.0150
-0.0150
-0.0233
-0.0233
-0.0333
-0.0333
-0.0367
-0.0367
-0.0383
-0.0367
-0.0300
-0.0317
-0.0250
-0.0250
-0.0217
-0.0233
-0.0167
-0.0183
-0.0150
-0.0167
-0.0117
-0.0117
-0.0050
-0.0050
-0.0017
-0.0017
-0.0183
-0.0200
-0.0567
-0.0667
-0.0383
-0.0350
0.0517
0.0550
0.0667
0.0617
0.0433
0.0433
0.0283
0.0283
0.0067
0.0067
-0.0017
-0.0033
-0.0117
-0.0150
-0.0100
-0.0100
0.0000
0.0000
0.0100
0.0100
0.0283
0.0300
0.0500
0.0500
0.0867
0.0883
0.1533
0.1567
0.2167
0.2150
-0.0433
-0.0500
-0.1000
-0.0883
-0.0400
-0.0333
0.0700
0.0733
0.0950
0.0900
0.0450
0.0417
-0.0167
-0.0183
-0.0617
-0.0633
-0.0783
0.1
-0.0800
-0.0867
-0.0850
-0.0817
-0.0817
-0.0867
-0.0883
-0.0917
-0.0900
-0.0883
-0.0883
-0.0717
-0.0700
-0.0483
-0.0483
-0.0367
-0.0367
-0.0400
-0.0400
-0.0383
-0.0383
-0.0317
-0.0300
-0.0217
-0.0217
-0.0133
-0.0133
-0.0050
-0.0033
0.0083
0.0083
0.0200
0.0200
0.0333
0.0333
0.0417
0.0400
0.0233
0.0233
-0.0067
-0.0067
-0.0233
-0.0267
-0.0217
-0.0200
0.0000
0.0000
0.0167
0.0167
0.0333
0.0350
0.0683
0.0683
0.0950
0.0917
0.0400
0.1600
-0.0050
-0.0267
0.1717
0.1267
-0.1483
-0.1350
-0.1933
-0.1433
-0.0683
-0.0667
-0.0417
-0.0400
-0.0333
-0.0333
-0.0300
-0.0317
-0.0267
-0.0283
-0.0233
-0.0233
-0.0200
-0.0217
-0.0150
-0.0167
-0.0133
-0.0150
-0.0117
-0.0133
-0.0117
-0.0117
-0.0100
-0.0083
-0.0117
-0.0100
-0.0050
-0.0067
-0.0017
-0.0033
0.0017
0.0017
0.0100
0.0117
0.0200
0.0200
0.0250
0.0250
0.0217
0.0217
0.0067
0.0067
-0.0017
-0.0033
0.0000
-0.0017
-0.0050
-0.0050
-0.0083
-0.0067
-0.0083
-0.0067
-0.0117
-0.0117
-0.0050
-0.0050
0.0050
0.0050
0.0100
0.0067
-0.0267
-0.0300
-0.0883
-0.0917
-0.0683
-0.0650
0.0450
0.0483
0.1450
0.1483
0.2017
0.2050
0.0200
0.0100
0.0233
0.0233
0.0433
0.0433
0.0500
0.0500
0.0450
0.0450
0.0383
0.0383
0.0367
0.0367
0.0333
0.0333
0.0367
0.0350
0.0333
0.0333
0.0300
0.0300
0.0267
0.0283
0.0217
0.0250
0.0200
0.0217
0.0150
0.0167
0.0117
0.0150
0.0100
0.0100
0.0067
0.0100
0.0067
0.0067
0.0033
0.0033
0.0017
0.0033
0.0017
0.0017
-0.0017
0.0017
0.0000
0.0017
-0.0017
0.0000
-0.0100
-0.0100
-0.0200
-0.0200
-0.0233
-0.0217
-0.0150
-0.0150
0.0000
0.0017
0.0267
0.0283
0.0367
0.0383
0.0417
0.0417
0.0383
0.0400
0.0333
0.0350
0.0317
0.0333
0.0283
0.0283
0.0250
0.0267
0.0217
0.0217
0.0250
0.0250
0.0283
0.0283
0.0267
0.0267
0.0283
0.0283
0.0267
0.0267
0.0167
0.0167
0.0083
0.0067
-0.0067
-0.0067
-0.0183
-0.0200
-0.0283
-0.0300
-0.0333
-0.0333
-0.0367
-0.0350
-0.0300
-0.0300
-0.0267
-0.0267
-0.0233
-0.0250
-0.0217
-0.0233
-0.0200
-0.0217
-0.0183
-0.0200
-0.0250
-0.0250
-0.0333
-0.0317
-0.0350
-0.0317
-0.0300
-0.0300
-0.0233
-0.0250
-0.0283
-0.0300
-0.0267
-0.0283
-0.0233
-0.0250
-0.0200
-0.0200
-0.0167
-0.0183
-0.0167
-0.0200
-0.0250
-0.0250
-0.0283
-0.0267
-0.0233
-0.0250
-0.0183
-0.0183
-0.0117
-0.0117
-0.0100
-0.0117
-0.0050
-0.0083
-0.0050
-0.0083
-0.0050
-0.0067
-0.0017
-0.0017
0.0017
0.0000
-0.0017
0.0000
-0.0050
-0.0050
-0.0083
-0.0083
-0.0133
-0.0133
-0.0117
-0.0117
-0.0150
-0.0133
-0.0167
-0.0167
-0.0217
-0.0217
-0.0283
-0.0283
-0.0317
-0.0300
-0.0267
-0.0283
-0.0267
-0.0267
-0.0233
-0.0250
-0.0283
-0.0283
-0.0333
-0.0317
-0.0300
-0.0300
-0.0350
-0.0350
-0.0433
-0.0433
-0.0583
-0.0583
-0.0667
-0.0617
-0.0733
-0.0767
-0.1367
-0.1350
-0.0683
-0.0650
-0.0167
-0.0167
-0.0117
-0.0100
0.0433
0.0450
0.0550
0.0433
0.0117
0.0117
0.0033
0.0067
-0.0050
-0.0050
-0.0217
-0.0217
-0.0433
-0.0433
-0.0550
-0.0550
-0.0650
-0.0650
-0.0767
-0.0767
-0.0717
-0.0717
-0.0617
-0.0617
-0.0483
-0.0483
-0.0417
-0.0417
-0.0450
-0.0417
-0.0400
-0.0400
-0.0417
-0.0400
-0.0450
-0.0433
-0.0467
-0.0467
-0.0550
-0.0550
-0.0617
-0.0633
-0.0750
-0.0750
-0.0833
-0.0833
-0.0800
-0.0800
-0.0733
-0.0733
-0.0700
-0.0700
-0.0600
-0.0600
-0.0433
-0.0417
-0.0183
-0.0183
0.0017
0.0050
-0.0017
-0.0017
0.0000
0.0000
-0.0067
-0.0067
-0.0167
-0.0167
-0.0400
-0.0400
-0.0483
-0.0483
-0.0400
-0.0400
-0.0217
-0.0217
-0.0067
-0.0067
0.0083
0.0083
0.0350
0.0367
0.0633
0.0650
0.0017
-0.0283
0.1750
0.1783
-0.0017
0.2283
-0.1567
-0.1517
-0.2317
-0.2233
-0.1183
-0.1150
-0.0517
-0.0500
-0.0200
-0.0167
-0.0233
-0.0233
-0.0483
-0.0483
-0.0700
-0.0700
-0.0800
-0.0733
-0.0517
-0.0500
-0.0317
-0.0317
-0.0217
-0.0217
-0.0617
-0.0650
-0.1383
-0.1417
-0.1167
-0.1133
0.0183
0.0233
0.1333
0.1367
0.2017
0.1917
0.2133
0.2083
-0.0733
-0.1200
-0.0400
-0.0367
0.0183
0.0200
0.0700
0.0783
0.0683
0.0667
0.0167
0.0150
-0.0367
-0.0383
-0.0767
-0.0783
-0.0967
-0.0967
-0.1050
-0.1033
-0.0983
-0.0983
-0.0867
-0.0850
-0.0783
-0.0783
-0.0750
-0.0750
-0.0683
-0.0667
-0.0617
-0.0617
-0.0500
-0.0500
-0.0433
-0.0450
-0.0500
-0.0517
-0.0667
-0.0683
-0.0733
-0.0733
-0.0767
-0.0767
-0.0800
-0.0783
-0.0683
-0.0683
-0.0583
-0.0583
-0.0500
-0.0500
-0.0417
-0.0417
-0.0333
-0.0333
-0.0233
-0.0233
-0.0133
-0.0133
-0.0050
-0.0050
0.0067
0.0067
0.0133
0.0150
0.0467
0.0500
0.1133
0.1083
-0.0750
-0.0717
-0.0333
-0.0300
-0.0017
0.0000
0.0183
0.0167
0.0200
0.0200
0.0167
0.0150
0.0033
0.0033
-0.0033
-0.0017
-0.0067
-0.0050
0.0000
0.0000
0.0217
0.0233
0.0167
0.0150
0.0050
0.0033
-0.0117
-0.0133
-0.0233
-0.0250
-0.0317
-0.0317
-0.0333
-0.0333
-0.0317
-0.0317
-0.0350
-0.0317
-0.0350
-0.0333
-0.0350
-0.0333
-0.0283
-0.0283
-0.0167
-0.0167
-0.0067
-0.0050
0.0033
0.0050
0.0017
0.0017
-0.0050
-0.0033
-0.0050
-0.0033
0.0017
0.0000
0.0050
0.0033
0.0067
0.0033
0.0067
0.0017
0.0050
0.0033
0.0083
0.0050
0.0083
0.0050
0.0083
0.0050
0.0067
0.0050
0.0033
0.0033
-0.0033
-0.0033
-0.0117
-0.0100
-0.0150
-0.0133
-0.0217
-0.0200
-0.0250
-0.0233
-0.0267
-0.0267
-0.0317
-0.0317
-0.0367
-0.0367
-0.0317
-0.0317
-0.0267
-0.0283
-0.0233
-0.0233
-0.0150
-0.0183
-0.0133
-0.0150
-0.0117
-0.0133
-0.0083
-0.0083
-0.0117
-0.0117
-0.0150
-0.0117
-0.0183
-0.0183
-0.0200
-0.0217
-0.0267
-0.0250
-0.0300
-0.0300
-0.0350
-0.0367
-0.0333
-0.0350
-0.0333
-0.0333
-0.0367
-0.0350
-0.0383
-0.0383
-0.0417
-0.0417
-0.0433
-0.0433
-0.0417
-0.0417
-0.0383
-0.0383
-0.0350
-0.0367
-0.0383
-0.0383
-0.0433
-0.0433
-0.0467
-0.0467
-0.0433
-0.0467
-0.0433
-0.0450
-0.0417
-0.0400
-0.0417
-0.0400
-0.0383
-0.0383
-0.0433
-0.0400
-0.0433
-0.0433
-0.0450
-0.0433
-0.0417
-0.0417
-0.0317
-0.0317
-0.0233
-0.0267
-0.0233
-0.0217
-0.0250
-0.0250
-0.0333
-0.0350
-0.0417
-0.0400
-0.0450
-0.0450
-0.0467
-0.0483
-0.0433
-0.0417
-0.0483
-0.0483
-0.0667
-0.0683
-0.1083
-0.1083
-0.1200
-0.1100
-0.0200
-0.0150
0.0217
0.0217
0.0050
0.0000
0.0067
0.0067
0.0150
0.0133
0.0167
0.0167
0.0217
0.0183
0.0167
0.0183
0.0233
0.0250
0.0283
0.0283
0.0317
0.0317
0.0250
0.0250
0.0183
0.0167
0.0050
0.0050
-0.0067
-0.0083
-0.0167
-0.0167
-0.0183
-0.0183
-0.0083
-0.0083
0.0017
0.0017
0.0050
0.0033
0.0067
0.0067
0.0133
0.0133
0.0250
0.0250
0.0367
0.0383
0.0550
0.0567
0.0850
0.0850
0.1150
0.1333
0.0717
0.0550
0.2867
0.0217
0.2150
0.3283
-0.1483
-0.1317
-0.2183
-0.2100
-0.1183
-0.1167
-0.0733
-0.0733
-0.0683
-0.0683
-0.0550
-0.0550
-0.0883
-0.0917
-0.1450
-0.1333
-0.0183
-0.0150
0.0733
0.0750
0.0917
0.0917
0.0867
0.0867
0.0667
0.0667
0.0417
0.0400
-0.0267
-0.0317
-0.1017
-0.1017
-0.0283
-0.0233
0.0667
0.0700
0.1283
0.1300
0.1167
0.1167
0.0900
0.0883
0.0683
0.0683
0.0717
0.0717
0.0767
0.0783
0.0750
0.0767
0.0683
0.0683
0.0500
0.0483
0.0350
0.0333
0.0267
0.0267
0.0333
0.0333
0.0417
0.0433
0.0483
0.0500
0.0517
0.0517
0.0467
0.0483
0.0517
0.0500
0.0567
0.0567
0.0683
0.0667
0.0717
0.0717
0.0650
0.0650
0.0583
0.0583
0.0600
0.0600
0.0633
0.0633
0.0617
0.0633
0.0617
0.0617
0.0633
0.0650
0.0617
0.0633
0.0600
0.0617
0.0650
0.0650
0.0683
0.0683
0.0650
0.0633
0.0583
0.0583
0.0517
0.0533
0.0500
0.0500
0.0483
0.0467
0.0483
0.0483
0.0450
0.0483
0.0517
0.0517
0.0550
0.0550
0.0533
0.0517
0.0550
0.0550
0.0517
0.0533
0.0500
0.0517
0.0450
0.0450
0.0350
0.0350
0.0300
0.0283
0.0300
0.0283
0.0317
0.0317
0.0300
0.0300
0.0333
0.0350
0.0317
0.0317
0.0367
0.0333
0.0383
0.0383
0.0400
0.0383
0.0333
0.0317
0.0433
0.0450
0.0950
0.0983
0.1383
0.0917
-0.0717
-0.0667
-0.0333
-0.0317
-0.0050
-0.0050
0.0200
0.0217
0.0550
0.0567
0.1133
0.1150
0.2017
0.1950
0.2483
0.2417
0.0167
0.0217
0.1617
0.1433
0.1750
0.1800
0.2267
0.2283
0.2000
0.1967
0.1133
0.1100
0.0200
0.0167
-0.0533
-0.0550
-0.0917
-0.0933
-0.1117
-0.1133
-0.1183
-0.1200
-0.1233
-0.1233
-0.1300
-0.1300
-0.1233
-0.1233
-0.1200
-0.1183
-0.1133
-0.1117
-0.1050
-0.1050
-0.0933
-0.0933
-0.0833
-0.0833
-0.0700
0.1
-0.0683
-0.0600
-0.0600
-0.0467
-0.0467
-0.0383
-0.0383
-0.0317
-0.0317
-0.0200
-0.0200
-0.0100
-0.0117
-0.0067
-0.0067
-0.0033
-0.0033
-0.0100
-0.0117
-0.0150
-0.0167
-0.0117
-0.0133
-0.0083
-0.0100
-0.0067
-0.0083
-0.0150
-0.0133
-0.0183
-0.0167
-0.0217
-0.0217
-0.0267
-0.0283
-0.0350
-0.0350
-0.0433
-0.0433
-0.0517
-0.0500
-0.0533
-0.0500
-0.0533
-0.0500
-0.0433
-0.0433
-0.0367
-0.0367
-0.0283
-0.0283
-0.0367
-0.0367
-0.0450
-0.0467
-0.0533
-0.0517
-0.0567
-0.0567
-0.0517
-0.0517
-0.0383
-0.0367
-0.0200
-0.0200
0.0000
0.0000
0.0050
0.0017
-0.0317
-0.0333
-0.0850
-0.0950
-0.0683
-0.0633
0.0067
0.0133
0.0033
0.0017
-0.0183
-0.0183
-0.0150
-0.0167
-0.0283
-0.0300
-0.0383
-0.0367
-0.0467
-0.0450
-0.0500
-0.0483
-0.0517
-0.0517
-0.0550
-0.0550
-0.0567
-0.0583
-0.0550
-0.0550
-0.0517
-0.0517
-0.0550
-0.0517
-0.0533
-0.0517
-0.0500
-0.0517
-0.0533
-0.0550
-0.0600
-0.0600
-0.0633
-0.0633
-0.0717
-0.0700
-0.0750
-0.0750
-0.0817
-0.0833
-0.0883
-0.0883
-0.0950
-0.0933
-0.0900
-0.0900
-0.0933
-0.0917
-0.0967
-0.0950
-0.0933
-0.0917
-0.0983
-0.0983
-0.0933
-0.0967
-0.0917
-0.0917
-0.0850
-0.0867
-0.0783
-0.0767
-0.0517
-0.0500
-0.0067
-0.0633
0.1333
0.2267
-0.0350
0.2483
-0.2117
-0.2250
-0.3317
-0.3333
-0.2550
-0.2517
-0.1917
-0.1817
-0.1950
-0.1967
-0.2667
-0.2700
-0.3167
-0.3100
-0.2133
-0.2067
-0.1067
-0.1033
-0.0433
-0.0417
-0.0600
-0.0617
-0.0950
-0.0967
-0.1117
-0.1117
-0.1150
-0.1150
-0.1133
-0.1133
-0.1183
-0.1200
-0.1167
-0.1183
-0.1233
-0.1217
-0.1183
-0.1183
-0.1150
-0.1150
-0.1083
-0.1100
-0.1017
-0.1017
-0.0867
-0.0850
-0.0800
-0.0800
-0.0850
-0.0850
-0.0867
-0.0833
-0.0850
-0.0833
-0.0917
-0.0900
-0.0983
-0.0983
-0.1033
-0.1000
-0.1033
-0.1050
-0.1017
-0.1017
-0.0967
-0.0950
-0.0983
-0.0967
-0.1017
-0.1000
-0.1050
-0.1000
-0.1267
-0.1283
-0.2167
-0.2167
-0.1333
-0.1267
-0.0217
-0.0183
0.0067
0.0067
-0.0117
-0.0117
-0.0317
-0.0317
-0.0433
-0.0433
-0.0483
-0.0483
-0.0517
-0.0517
-0.0550
-0.0550
-0.0583
-0.0583
-0.0533
-0.0567
-0.0533
-0.0533
-0.0450
-0.0433
-0.0367
-0.0367
-0.0350
-0.0383
-0.0517
-0.0517
-0.0650
-0.0650
-0.0733
-0.0750
-0.0717
-0.0717
-0.0567
-0.0567
-0.0400
-0.0383
-0.0200
-0.0183
-0.0050
-0.0050
0.0017
0.0000
0.0033
0.0017
0.0050
0.0033
0.0117
0.0133
0.0250
0.0217
0.0250
0.0217
0.0117
0.0100
-0.0067
-0.0083
-0.0200
-0.0200
-0.0283
-0.0283
-0.0233
-0.0233
-0.0167
-0.0150
-0.0117
-0.0100
0.0050
0.0050
0.0167
0.0183
0.0217
0.0217
0.0200
0.0200
0.0167
0.0150
0.0183
0.0167
0.0233
0.0233
0.0300
0.0300
0.0317
0.0317
0.0267
0.0267
0.0233
0.0250
0.0283
0.0283
0.0300
0.0317
0.0283
0.0283
0.0250
0.0267
0.0317
0.0317
0.0367
0.0367
0.0500
0.0500
0.0650
0.0633
0.0683
0.0667
0.0633
0.0633
0.0667
0.0650
0.0700
0.0700
0.0817
0.0833
0.0933
0.0933
0.0967
0.0950
0.0933
0.0933
0.0883
0.0900
0.0850
0.0850
0.0817
0.0817
0.0800
0.0783
0.0833
0.0817
0.0800
0.0783
0.0750
0.0767
0.0733
0.0733
0.0800
0.0800
0.0917
0.0917
0.0967
0.0950
0.0983
0.0950
0.1017
0.1033
0.1200
0.1217
0.1750
0.2167
0.1017
0.0833
0.0083
0.0167
0.0533
0.0550
0.0783
0.0783
0.0883
0.0900
0.0950
0.0933
0.1000
0.0983
0.1083
0.1100
0.1067
0.1117
0.1200
0.1200
0.1233
0.1200
0.1233
0.1217
0.1200
0.1217
0.1283
0.1283
0.1383
0.1383
0.1567
0.1567
0.1783
0.1800
0.2200
0.2217
0.2783
0.2600
0.3133
0.1900
0.3400
0.3517
0.1250
0.1817
0.2700
0.2717
0.2933
0.2800
0.2117
0.2083
0.1133
0.1100
0.0350
0.0317
-0.0017
-0.0017
-0.0133
-0.0133
-0.0217
-0.0200
-0.0150
-0.0167
-0.0100
-0.0100
-0.0317
-0.0350
-0.0883
-0.0900
-0.1133
-0.1050
-0.0250
-0.0217
0.0033
0.0050
0.0033
0.0017
0.0267
0.0267
0.0417
0.0367
0.0417
0.0417
0.0500
0.0500
0.0567
0.0567
0.0633
0.0617
0.0567
0.0567
0.0517
0.0533
0.0550
0.0567
0.0533
0.0533
0.0400
0.0400
0.0300
0.0333
0.0367
0.0367
0.0400
0.0400
0.0450
0.0450
0.0383
0.0367
0.0267
0.0267
0.0233
0.0267
0.0417
0.0417
0.0600
0.0617
0.0800
0.0800
0.0950
0.0950
0.1083
0.1083
0.1167
0.1183
0.1317
0.1333
0.1417
0.1333
0.0617
0.0533
-0.1083
-0.1067
0.4183
0.1900
0.4600
0.4417
-0.0200
0.0000
-0.0983
-0.0883
-0.0317
-0.0317
-0.0100
-0.0100
-0.0017
-0.0017
0.0050
0.0033
0.0117
0.0117
0.0167
0.0167
0.0217
0.0217
0.0233
0.0233
0.0267
0.0267
0.0250
0.0267
0.0300
0.0300
0.0267
0.0267
0.0317
0.0300
0.0267
0.0283
0.0217
0.0217
0.0233
0.0217
0.0250
0.0233
0.0267
0.0250
0.0283
0.0283
0.0300
0.0283
0.0267
0.0267
0.0233
0.0233
0.0267
0.0250
0.0283
0.0267
0.0300
0.0283
0.0317
0.0317
0.0367
0.0367
0.0333
0.0350
0.0333
0.0350
0.0317
0.0317
0.0333
0.0333
0.0350
0.0317
0.0383
0.0383
0.0350
0.0367
0.0333
0.0333
0.0300
0.0317
0.0283
0.0300
0.0233
0.0233
0.0167
0.0167
0.0050
0.0050
0.0000
0.0017
0.0033
0.0033
0.0000
0.0000
-0.0017
-0.0033
0.0017
0.0017
-0.0033
-0.0033
0.0000
-0.0017
0.0000
0.0000
0.0083
0.0067
0.0167
0.0167
0.0300
0.0300
0.0400
0.0383
0.0333
0.0333
0.0300
0.0300
0.0333
0.0333
0.0317
0.0300
0.0333
0.0317
0.0350
0.0350
0.0433
0.0433
0.0500
0.0517
0.0467
0.0467
0.0283
0.0283
0.0033
0.0033
-0.0117
-0.0117
-0.0150
-0.0133
-0.0033
-0.0033
0.0033
0.0017
0.0067
0.0083
0.0033
0.0050
0.0000
0.0000
-0.0100
-0.0033
-0.0117
-0.0117
-0.0833
-0.0867
-0.1233
-0.0950
0.0167
0.0217
0.0867
0.0900
0.0850
0.0833
0.0700
0.0700
0.0600
0.0583
0.0467
0.0467
0.0250
0.0250
0.0067
0.0050
-0.0050
-0.0083
-0.0033
-0.0033
0.0117
0.0117
0.0250
0.0250
0.0300
0.0300
0.0267
0.0267
0.0333
0.0317
0.0383
0.0367
0.0400
0.0367
0.0417
0.0433
0.0400
0.0400
0.0250
0.0233
0.0000
0.0000
-0.0133
-0.0150
-0.0133
-0.0150
0.0000
0.0017
0.0233
0.0233
0.0283
0.0267
0.0200
0.0200
0.0150
0.0150
0.0117
0.0117
0.0133
0.0117
0.0083
0.0050
0.0083
0.0083
0.0050
0.0067
0.0083
0.0083
0.0117
0.0083
0.0100
0.0083
0.0100
0.0100
0.0133
0.0133
0.0150
0.0150
0.0100
0.0117
0.0150
0.0150
0.0217
0.0200
0.0250
0.0233
0.0167
0.0167
0.0083
0.0067
0.0000
0.0000
0.0033
0.0033
0.0167
0.0167
0.0250
0.0250
0.0317
0.0317
0.0417
0.0417
0.0917
0.1150
-0.0767
-0.0817
-0.0567
-0.0533
-0.0150
-0.0150
0.0067
0.0067
0.0117
0.0133
0.0117
0.0117
0.0083
0.0083
0.0117
0.0100
0.0133
0.0133
0.0117
0.0117
0.0083
0.0083
-0.0050
-0.0050
-0.0100
-0.0100
-0.0050
-0.0033
0.0067
0.0067
0.0183
0.0183
0.0117
0.0117
0.0100
0.0083
0.0000
0.0017
-0.0033
-0.0033
-0.0017
-0.0050
-0.0100
-0.0083
-0.0150
-0.0133
-0.0150
-0.0150
-0.0133
-0.0150
-0.0167
-0.0150
-0.0183
-0.0200
-0.0167
-0.0167
-0.0200
-0.0200
-0.0167
-0.0183
-0.0117
-0.0100
-0.0050
-0.0050
-0.0250
-0.0250
-0.0717
-0.0733
-0.0933
-0.0850
-0.0033
0.0017
0.0300
0.0267
0.0033
0.0017
0.0117
0.0133
0.0267
0.0267
0.0183
0.0217
0.0267
0.0283
0.0200
0.0183
-0.0283
-0.0317
-0.1050
-0.1050
-0.0350
-0.0300
0.1217
0.1283
0.2767
0.2700
0.3217
0.3100
0.0967
0.1083
0.2950
0.2433
0.2783
0.2800
0.3050
0.3050
0.1500
0.1400
0.4367
0.2733
0.0200
0.2817
-0.2617
-0.2650
-0.3967
-0.3833
-0.2933
-0.2917
-0.2383
-0.2367
-0.2017
-0.2017
-0.1750
-0.1750
-0.1550
-0.1550
-0.1350
-0.1333
-0.1133
-0.1133
-0.1000
-0.1000
-0.0933
-0.0933
-0.0817
-0.0833
-0.0783
-0.0817
-0.0883
-0.0883
-0.0950
-0.0950
-0.0867
-0.0867
-0.0817
-0.0817
-0.0683
-0.0683
-0.0533
-0.0533
-0.0417
-0.0417
-0.0350
-0.0350
-0.0367
-0.0350
-0.0317
-0.0317
-0.0300
-0.0300
-0.0250
-0.0267
-0.0233
-0.0217
-0.0150
-0.0150
-0.0117
-0.0117
-0.0133
-0.0133
-0.0167
-0.0150
-0.0167
-0.0150
-0.0067
-0.0083
0.0017
0.0017
0.0050
0.0050
0.0067
0.0067
0.0033
0.0033
0.0000
0.0000
0.0050
0.0033
0.0117
0.0117
0.0167
0.0183
0.0150
0.0150
0.0167
0.0167
0.0083
0.0083
0.0017
0.0017
-0.0050
-0.0050
-0.0033
-0.0033
-0.0067
-0.0050
-0.0117
-0.0117
-0.0100
-0.0100
-0.0150
-0.0133
-0.0167
-0.0150
-0.0217
-0.0200
-0.0100
-0.0100
-0.0017
-0.0017
0.0017
0.0017
-0.0017
-0.0033
-0.0083
-0.0117
-0.0067
0.1
-0.0067
-0.0100
-0.0083
-0.0133
-0.0133
-0.0233
-0.0233
-0.0333
-0.0333
-0.0383
-0.0383
-0.0417
-0.0433
-0.0383
-0.0400
-0.0283
-0.0267
-0.0117
-0.0117
0.0083
0.0083
0.0167
0.0117
0.0150
0.0167
0.0300
0.0300
0.0483
0.0500
0.0583
0.0567
0.0400
0.0383
0.0083
0.0067
-0.0133
-0.0150
-0.0183
-0.0183
-0.0167
-0.0150
-0.0050
-0.0050
0.0000
-0.0017
0.0100
0.0100
0.0200
0.0200
0.0300
0.0267
-0.0350
-0.0400
-0.0933
-0.0750
0.0333
0.0367
0.0983
0.1000
0.0867
0.0850
0.0617
0.0600
0.0433
0.0417
0.0350
0.0350
0.0333
0.0367
0.0333
0.0317
0.0283
0.0283
0.0200
0.0183
0.0150
0.0150
0.0100
0.0100
0.0133
0.0150
0.0217
0.0233
0.0300
0.0267
0.0333
0.0317
0.0350
0.0350
0.0317
0.0300
0.0317
0.0317
0.0283
0.0300
0.0267
0.0283
0.0250
0.0267
0.0217
0.0217
0.0150
0.0167
0.0083
0.0083
0.0017
0.0000
0.0033
0.0033
0.0000
0.0033
0.0000
0.0017
-0.0017
-0.0033
0.0017
0.0017
0.0050
0.0017
0.0100
0.0083
0.0117
0.0117
0.0167
0.0150
0.0200
0.0200
0.0183
0.0183
0.0283
0.0300
0.0417
0.0433
0.0517
0.0533
0.0900
0.0933
0.1483
0.1400
-0.0583
-0.0583
-0.0233
-0.0217
0.0067
0.0083
0.0300
0.0300
0.0383
0.0400
0.0433
0.0433
0.0367
0.0367
0.0167
0.0150
-0.0033
-0.0050
-0.0150
-0.0183
-0.0133
-0.0133
-0.0067
-0.0050
-0.0017
-0.0017
0.0083
0.0083
0.0167
0.0167
0.0217
0.0183
0.0217
0.0183
0.0217
0.0217
0.0200
0.0217
0.0233
0.0217
0.0283
0.0267
0.0300
0.0300
0.0367
0.0367
0.0400
0.0383
0.0367
0.0367
0.0333
0.0350
0.0267
0.0267
0.0250
0.0233
0.0167
0.0167
0.0100
0.0100
-0.0167
-0.0183
-0.0950
-0.1000
-0.1450
-0.1350
-0.0350
-0.0300
0.0650
0.0683
0.1217
0.1200
0.0850
0.0817
0.0050
0.0017
-0.0450
-0.0500
-0.0050
-0.0017
0.0600
0.0633
0.0550
0.0533
0.0400
0.0417
0.0383
0.0367
0.0200
0.0200
0.0133
0.0133
0.0100
0.0100
0.0117
0.0100
0.0117
0.0083
0.0117
0.0117
0.0217
0.0217
0.0300
0.0300
0.0333
0.0317
0.0250
0.0267
0.0200
0.0200
0.0233
0.0233
0.0267
0.0267
0.0300
0.0317
0.0383
0.0383
0.0683
0.0700
0.1050
0.1050
0.0133
0.0117
0.3917
0.0500
0.2717
0.3517
-0.1433
-0.1450
-0.2483
-0.2367
-0.1550
-0.1517
-0.1050
-0.1050
-0.0883
-0.0883
-0.0750
-0.0767
-0.0633
-0.0633
-0.0483
-0.0483
-0.0383
-0.0383
-0.0300
-0.0317
-0.0267
-0.0250
-0.0267
-0.0250
-0.0150
-0.0150
-0.0100
-0.0100
-0.0067
-0.0050
-0.0083
-0.0083
-0.0033
-0.0033
0.0017
0.0033
0.0000
0.0000
-0.0033
-0.0033
-0.0100
-0.0100
-0.0167
-0.0167
-0.0283
-0.0283
-0.0367
-0.0367
-0.0433
-0.0417
-0.0433
-0.0417
-0.0433
-0.0417
-0.0450
-0.0417
-0.0467
-0.0467
-0.0483
-0.0517
-0.0483
-0.0500
-0.0483
-0.0500
-0.0467
-0.0500
-0.0450
-0.0433
-0.0300
-0.0283
-0.0217
-0.0217
-0.0250
-0.0217
-0.0233
-0.0217
-0.0233
-0.0217
-0.0067
-0.0067
0.0100
0.0100
0.0333
0.0367
0.0817
0.0867
0.1217
0.1300
-0.0517
-0.1050
0.0517
0.0633
0.2200
0.1750
0.1600
0.1600
0.1183
0.1167
0.0317
0.0267
-0.0600
-0.0633
-0.1283
-0.1300
-0.1667
-0.1683
-0.1800
-0.1817
-0.1850
-0.1817
-0.1767
-0.1783
-0.1683
-0.1683
-0.1633
-0.1633
-0.1600
-0.1600
-0.1567
-0.1567
-0.1483
-0.1483
-0.1450
-0.1467
-0.1500
-0.1517
-0.1450
-0.1450
-0.1233
-0.1217
-0.1033
-0.1017
-0.0783
-0.0783
-0.0483
-0.0467
-0.0383
-0.0367
-0.0450
-0.0450
-0.0600
-0.0600
-0.0700
-0.0700
-0.0717
-0.0700
-0.0583
-0.0567
-0.0317
-0.0300
-0.0283
-0.0300
-0.0417
-0.0417
-0.0533
-0.0533
-0.0500
-0.0500
-0.0433
-0.0433
-0.0350
-0.0367
-0.0267
-0.0267
-0.0233
-0.0217
-0.0200
-0.0200
-0.0183
-0.0183
-0.0150
-0.0167
-0.0100
-0.0117
-0.0133
-0.0133
-0.0117
-0.0133
-0.0150
-0.0133
-0.0117
-0.0100
-0.0117
-0.0117
-0.0133
-0.0133
-0.0150
-0.0133
-0.0150
-0.0133
-0.0117
-0.0150
-0.0117
-0.0133
-0.0083
-0.0083
-0.0050
-0.0050
-0.0017
-0.0033
0.0000
-0.0017
-0.0050
-0.0017
0.0000
-0.0017
0.0017
0.0017
0.0033
0.0033
-0.0017
0.0000
-0.0050
-0.0067
-0.0100
-0.0017
-0.0233
-0.0267
-0.1150
-0.1150
-0.0333
-0.0283
0.0817
0.0833
0.1017
0.0983
0.0617
0.0600
0.0233
0.0200
-0.0050
-0.0050
-0.0200
-0.0200
-0.0267
-0.0267
-0.0250
-0.0283
-0.0200
-0.0183
-0.0150
-0.0150
-0.0200
-0.0200
-0.0217
-0.0200
-0.0150
-0.0150
-0.0017
-0.0017
0.0083
0.0067
0.0017
0.0017
-0.0017
-0.0017
-0.0083
-0.0050
-0.0083
-0.0033
0.0017
0.0033
0.0100
0.0100
0.0167
0.0183
0.0217
0.0233
0.0183
0.0200
0.0150
0.0183
0.0233
0.0267
0.0200
0.0183
-0.0033
-0.0067
-0.1867
-0.2283
-0.1233
-0.1150
0.0383
0.0433
0.1233
0.1283
0.1150
0.1133
0.0750
0.0733
0.0333
0.0317
-0.0017
-0.0017
-0.0150
-0.0133
-0.0067
-0.0067
0.0017
0.0017
0.0067
0.0067
0.0083
0.0083
0.0000
0.0000
-0.0083
-0.0083
-0.0117
-0.0117
-0.0100
-0.0117
-0.0083
-0.0117
-0.0067
-0.0067
-0.0150
-0.0167
-0.0583
-0.0600
-0.0850
-0.0867
-0.0233
-0.0200
0.0383
0.0433
0.0300
0.0300
0.0117
0.0133
0.0150
0.0150
-0.0017
-0.0033
0.0000
-0.0033
-0.0017
-0.0017
0.0050
0.0033
0.0067
0.0050
0.0000
0.0000
-0.0067
-0.0067
-0.0133
-0.0133
-0.0167
-0.0167
-0.0200
-0.0183
-0.0200
-0.0183
-0.0200
-0.0200
-0.0167
-0.0200
-0.0167
-0.0183
-0.0200
-0.0183
-0.0167
-0.0183
-0.0167
-0.0167
-0.0183
-0.0150
-0.0200
-0.0183
-0.0233
-0.0233
-0.0250
-0.0233
-0.0267
-0.0267
-0.0233
-0.0233
-0.0267
-0.0233
-0.0250
-0.0250
-0.0317
-0.0317
-0.0333
-0.0333
-0.0350
-0.0350
-0.0383
-0.0367
-0.0333
-0.0333
-0.0250
-0.0250
-0.0183
-0.0200
-0.0117
-0.0117
-0.0067
-0.0067
-0.0033
-0.0050
0.0000
0.0000
0.0083
0.0067
0.0200
0.0200
0.0433
0.0450
0.0800
0.0917
0.0200
-0.0350
0.2667
0.4650
0.1400
0.3550
-0.1417
-0.1567
-0.2767
-0.2933
-0.2250
-0.2217
-0.1533
-0.1517
-0.1183
-0.1167
-0.1083
-0.1083
-0.1017
-0.1033
-0.1100
-0.1117
-0.1183
-0.1183
-0.1233
-0.1217
-0.1250
-0.1250
-0.1183
-0.1183
-0.1100
-0.1100
-0.1117
-0.1117
-0.1150
-0.1150
-0.1167
-0.1150
-0.1183
-0.1200
-0.1167
-0.1167
-0.1083
-0.1083
-0.0933
-0.0933
-0.0617
-0.0600
-0.0250
-0.0250
-0.0100
-0.0100
-0.0050
-0.0067
-0.0050
-0.0067
-0.0100
-0.0083
-0.0117
-0.0117
-0.0167
-0.0167
-0.0317
-0.0333
-0.0433
-0.0417
-0.0450
-0.0450
-0.0450
-0.0433
-0.0467
-0.0467
-0.0417
-0.0433
-0.0350
-0.0350
-0.0217
-0.0217
0.0017
0.0033
0.0400
0.0417
0.1150
0.1000
0.1567
0.1550
-0.0183
-0.0167
0.2867
0.2817
0.2350
0.2350
0.2117
0.2100
0.1300
0.1250
0.0033
-0.0017
-0.1117
-0.1150
-0.1867
-0.1883
-0.2283
-0.2300
-0.2433
-0.2450
-0.2517
-0.2500
-0.2583
-0.2567
-0.2683
-0.2667
-0.2700
-0.2683
-0.2550
-0.2533
-0.2200
-0.2183
-0.1817
-0.1800
-0.1433
-0.1433
-0.1217
-0.1217
-0.1117
-0.1117
-0.1000
-0.1000
-0.0900
-0.0900
-0.0800
-0.0800
-0.0667
-0.0667
-0.0600
-0.0600
-0.0533
-0.0517
-0.0467
-0.0450
-0.0483
-0.0483
-0.0567
-0.0550
-0.0650
-0.0650
-0.0717
-0.0700
-0.0633
-0.0633
-0.0483
-0.0483
-0.0333
-0.0333
-0.0167
-0.0167
-0.0083
-0.0100
-0.0033
-0.0033
-0.0050
-0.0050
0.0017
0.0017
0.0000
0.0000
0.0033
0.0017
0.0067
0.0050
0.0133
0.0117
0.0167
0.0167
0.0200
0.0200
0.0217
0.0183
0.0217
0.0217
0.0233
0.0233
0.0200
0.0200
0.0233
0.0200
0.0250
0.0233
0.0267
0.0250
0.0317
0.0300
0.0333
0.0300
0.0200
0.0200
0.0117
0.0117
0.0083
0.0100
0.0050
0.0050
-0.0050
-0.0067
-0.0033
-0.0033
0.0100
0.0100
0.0200
0.0217
0.0350
0.0350
0.0433
0.0433
0.0417
0.0417
0.0483
0.0483
0.0533
0.0533
0.0300
0.0283
-0.0550
-0.0583
-0.1300
-0.1283
-0.0383
-0.0317
0.0883
0.0917
0.1467
0.1500
0.0833
0.0767
-0.0217
-0.0183
0.0817
0.0867
0.2217
0.2650
0.1233
0.1100
0.0367
0.0383
0.0267
0.0250
-0.0083
-0.0183
-0.0067
-0.0033
0.0783
0.0817
0.1117
0.1083
0.0917
0.0900
0.0933
0.0933
0.0867
0.0867
0.0683
0.0717
0.0667
0.0667
0.0533
0.0533
0.0467
0.0483
0.0417
0.0417
0.0433
0.0417
0.0383
0.0400
0.0367
0.0383
0.0350
0.0350
0.0400
0.0400
0.0417
0.0400
0.0467
0.0467
0.0483
0.0483
0.0450
0.0433
0.0467
0.0450
0.0417
0.0400
0.0450
0.0433
0.0450
0.0467
0.0433
0.0450
0.0417
0.0433
0.0400
0.0400
0.0350
0.0383
0.0350
0.0367
0.0350
0.0383
0.0350
0.0367
0.0333
0.0333
0.0283
0.0267
0.0200
0.0183
0.0167
0.0167
0.0150
0.0167
0.0183
0.1
0.0167
0.0200
0.0200
0.0233
0.0217
0.0267
0.0267
0.0317
0.0317
0.0350
0.0350
0.0417
0.0417
0.0467
0.0483
0.0550
0.0550
0.0650
0.0650
0.0733
0.0750
0.0933
0.0933
0.1250
0.1283
0.1533
0.1250
0.0183
0.0850
0.5283
0.1367
0.3817
0.3117
-0.1283
-0.1267
-0.2083
-0.1850
-0.1000
-0.0983
-0.0550
-0.0533
-0.0350
-0.0350
-0.0233
-0.0217
-0.0100
-0.0100
-0.0017
-0.0017
0.0067
0.0067
0.0133
0.0100
0.0150
0.0133
0.0150
0.0133
0.0167
0.0150
0.0167
0.0150
0.0167
0.0167
0.0200
0.0183
0.0233
0.0233
0.0283
0.0300
0.0267
0.0267
0.0250
0.0233
0.0217
0.0233
0.0267
0.0250
0.0267
0.0267
0.0217
0.0233
0.0200
0.0200
0.0233
0.0217
0.0267
0.0300
0.0233
0.0233
0.0133
0.0133
0.0050
0.0050
-0.0017
-0.0017
-0.0100
-0.0100
-0.0267
-0.0283
-0.0333
-0.0333
-0.0267
-0.0267
-0.0117
-0.0117
0.0017
0.0033
0.0133
0.0133
0.0167
0.0133
0.0050
0.0050
-0.0017
-0.0017
0.0033
0.0033
0.0117
0.0117
0.0200
0.0200
0.0217
0.0200
0.0167
0.0183
0.0133
0.0133
0.0083
0.0083
-0.0017
-0.0017
-0.0150
-0.0150
-0.0200
-0.0183
-0.0217
-0.0233
-0.0267
-0.0250
-0.0150
-0.0150
-0.0017
0.0000
0.0150
0.0150
0.0283
0.0283
0.0450
0.0450
0.0733
0.0733
0.0983
0.1000
0.1250
0.1250
0.1600
0.1800
0.1400
0.1817
0.0750
0.0350
0.1317
0.1600
0.5233
0.4217
0.3067
0.3033
0.1933
0.1900
0.0700
0.0650
-0.0517
-0.0567
-0.1467
-0.1500
-0.1967
-0.1967
-0.2200
-0.2200
-0.2233
-0.2217
-0.2083
-0.2067
-0.1850
-0.1833
-0.1583
-0.1583
-0.1267
-0.1250
-0.1033
-0.1033
-0.0900
-0.0883
-0.0767
-0.0750
-0.0700
-0.0717
-0.0683
-0.0683
-0.0633
-0.0683
-0.0650
-0.0650
-0.0550
-0.0550
-0.0483
-0.0483
-0.0333
-0.0333
-0.0200
-0.0183
-0.0150
-0.0133
-0.0167
-0.0167
-0.0067
-0.0067
0.0017
0.0017
0.0117
0.0117
0.0217
0.0217
0.0317
0.0350
0.0133
0.0100
-0.0850
-0.0900
-0.1200
-0.1067
0.0033
0.0100
0.1200
0.1233
0.1900
0.1900
0.1650
0.1633
0.1233
0.1233
0.0983
0.0967
0.0867
0.0867
0.0800
0.0783
0.0733
0.0733
0.0683
0.0683
0.0717
0.0700
0.0650
0.0650
0.0683
0.0667
0.0700
0.0683
0.0700
0.0667
0.0700
0.0667
0.0717
0.0700
0.0517
0.0500
0.0033
0.0000
-0.0317
-0.0333
0.0150
0.0183
0.0967
0.0983
0.1067
0.1033
0.0933
0.0933
0.0983
0.0933
0.0683
0.0667
0.0550
0.0550
0.0500
0.0500
0.0467
0.0483
0.0500
0.0467
0.0500
0.0500
0.0650
0.0650
0.1200
0.1467
0.0250
0.0117
-0.0467
-0.0350
0.0100
0.0117
0.0367
0.0367
0.0483
0.0483
0.0500
0.0500
0.0450
0.0450
0.0400
0.0400
0.0300
0.0300
0.0183
0.0167
0.0100
0.0133
-0.0400
-0.0450
-0.1100
-0.0967
0.0033
0.0100
0.1033
0.1100
0.1033
0.1033
0.0617
0.0583
0.0183
0.0167
0.0017
0.0017
-0.0100
-0.0100
-0.0117
-0.0083
-0.0050
-0.0050
0.0000
0.0000
0.0033
0.0017
0.0050
0.0050
0.0083
0.0067
0.0100
0.0117
0.0067
0.0067
0.0050
0.0067
0.0017
0.0017
-0.0033
-0.0017
-0.0050
-0.0050
-0.0033
-0.0033
0.0000
0.0000
0.0033
0.0017
0.0050
0.0050
0.0083
0.0067
0.0100
0.0100
0.0050
0.0050
-0.0033
-0.0050
-0.0117
-0.0100
-0.0133
-0.0133
-0.0167
-0.0167
-0.0150
-0.0150
-0.0167
-0.0133
-0.0167
-0.0150
-0.0183
-0.0183
-0.0167
-0.0167
-0.0183
-0.0167
-0.0183
-0.0167
-0.0200
-0.0200
-0.0233
-0.0233
-0.0200
-0.0200
-0.0233
-0.0200
-0.0250
-0.0200
-0.0183
-0.0183
-0.0167
-0.0167
-0.0133
-0.0133
-0.0083
-0.0100
-0.0133
-0.0117
-0.0167
-0.0167
-0.0250
-0.0217
-0.0267
-0.0267
-0.0300
-0.0300
-0.0233
-0.0217
-0.0150
-0.0150
-0.0067
-0.0067
0.0050
0.0067
0.0183
0.0200
0.0283
0.0283
0.0333
0.0317
0.0367
0.0350
0.0467
0.0483
0.0883
0.1000
0.0283
-0.0150
0.3367
0.4733
0.0617
0.3233
-0.0483
-0.0750
-0.2633
-0.2767
-0.2083
-0.2033
-0.1317
-0.1300
-0.1017
-0.1017
-0.0917
-0.0933
-0.0950
-0.0917
-0.0850
-0.0850
-0.0750
-0.0750
-0.0800
-0.0783
-0.0867
-0.0867
-0.0917
-0.0933
-0.0883
-0.0883
-0.0700
-0.0700
-0.0483
-0.0467
-0.0383
-0.0383
-0.0333
-0.0350
-0.0367
-0.0350
-0.0383
-0.0383
-0.0467
-0.0450
-0.0500
-0.0467
-0.0500
-0.0467
-0.0300
-0.0300
-0.0233
-0.0233
-0.0183
-0.0200
-0.0167
-0.0183
-0.0150
-0.0150
-0.0017
-0.0017
0.0050
0.0050
0.0150
0.0167
0.0333
0.0333
0.0433
0.0433
0.0367
0.0383
0.0317
0.0283
0.0317
0.0283
0.0150
0.0150
0.0000
0.0017
-0.0017
-0.0017
-0.0033
-0.0033
0.0017
0.0017
0.0083
0.0067
-0.0017
0.0000
-0.0050
-0.0050
-0.0117
-0.0117
-0.0100
-0.0117
-0.0083
-0.0117
-0.0067
-0.0067
-0.0100
-0.0117
-0.0083
-0.0083
0.0033
0.0033
0.0200
0.0217
0.0417
0.0417
0.0683
0.0683
0.0867
0.0850
0.0300
0.0250
-0.0700
-0.0967
-0.0717
-0.0683
0.0617
0.0667
0.1517
0.1533
0.1850
0.1833
0.1667
0.1667
0.1600
0.1617
0.1733
0.1733
0.2067
0.2083
0.2583
0.2333
0.3050
0.2700
0.5183
0.5150
0.2917
0.3833
0.4100
0.3917
0.3550
0.3517
0.2417
0.2367
0.1050
0.1000
-0.0050
-0.0100
-0.0817
-0.0833
-0.1233
-0.1250
-0.1317
-0.1317
-0.1250
-0.1250
-0.1183
-0.1167
-0.1033
-0.1017
-0.0883
-0.0867
-0.0717
-0.0717
-0.0533
-0.0533
-0.0400
-0.0400
-0.0567
-0.0567
-0.0817
-0.0867
-0.0550
-0.0517
0.0483
0.0500
0.0750
0.0750
0.0650
0.0667
0.0750
0.0783
0.0733
0.0733
0.0683
0.0700
0.0733
0.0717
0.0667
0.0700
0.0733
0.0750
0.0867
0.0867
0.0900
0.0883
0.0900
0.0883
0.0917
0.0867
0.0800
0.0800
0.0733
0.0733
0.0700
0.0717
0.0767
0.0767
0.0867
0.0867
0.1250
0.1283
0.1800
0.1783
-0.0150
-0.0150
0.0217
0.0250
0.0633
0.0650
0.0850
0.0850
0.0967
0.0967
0.1017
0.1017
0.1050
0.1017
0.1050
0.1033
0.1050
0.1033
0.1050
0.1033
0.1000
0.1017
0.0983
0.1000
0.0983
0.1000
0.0950
0.0967
0.0917
0.0933
0.0900
0.0933
0.0883
0.0900
0.0867
0.0867
0.0817
0.0817
0.0783
0.0800
0.0750
0.0767
0.0750
0.0750
0.0800
0.0767
0.0833
0.0833
0.0883
0.0883
0.0933
0.0900
0.0950
0.0950
0.0967
0.0933
0.0983
0.0983
0.0933
0.0950
0.0917
0.0917
0.0933
0.0900
0.0917
0.0883
0.0900
0.0867
0.0900
0.0883
0.0900
0.0900
0.0867
0.0883
0.0850
0.0850
0.0833
0.0833
0.0800
0.0800
0.0783
0.0767
0.0717
0.0717
0.0667
0.0700
0.0650
0.0667
0.0633
0.0667
0.0633
0.0650
0.0667
0.0650
0.0667
0.0667
0.0700
0.0700
0.0683
0.0700
0.0683
0.0700
0.0650
0.0667
0.0617
0.0633
0.0600
0.0583
0.0683
0.0683
0.0367
0.0333
-0.0300
-0.0217
0.0700
0.0750
0.1617
0.1633
0.1700
0.1617
0.1283
0.1267
0.1000
0.1000
0.0817
0.0817
0.0750
0.0733
0.0683
0.0683
0.0650
0.0700
0.0667
0.0683
0.0717
0.0733
0.0883
0.0900
0.1300
0.1383
0.0583
-0.0033
0.3083
0.5483
0.2150
0.3967
-0.0400
-0.0567
-0.1550
-0.1800
-0.1233
-0.1200
-0.0533
-0.0517
-0.0200
-0.0200
-0.0050
-0.0050
0.0067
0.0067
0.0117
0.0117
0.0083
0.0117
0.0133
0.0117
0.0100
0.0117
0.0083
0.0083
0.0117
0.0100
0.0167
0.0167
0.0233
0.0217
0.0267
0.0267
0.0350
0.0350
0.0467
0.0467
0.0517
0.0500
0.0550
0.0550
0.0617
0.0600
0.0467
0.0467
0.0283
0.0267
0.0083
0.0067
-0.0033
-0.0067
-0.0033
-0.0050
0.0017
0.0033
0.0083
0.0100
0.0167
0.0167
0.0233
0.0233
0.0217
0.0217
0.0233
0.0233
0.0267
0.0267
0.0317
0.0300
0.0333
0.0300
0.0283
0.0283
0.0267
0.0267
0.0233
0.0250
0.0283
0.0267
0.0300
0.0267
0.0317
0.0283
0.0250
0.0250
0.0183
0.0183
0.0133
0.0150
0.0100
0.0117
0.0150
0.0167
0.0233
0.0233
0.0300
0.0300
0.0367
0.0367
0.0400
0.0367
0.0400
0.0383
0.0367
0.0350
0.0283
0.0283
0.0317
0.0283
0.0333
0.0333
0.0350
0.0367
0.0317
0.0317
0.0233
0.0217
0.0150
0.0150
0.0033
0.0050
-0.0017
-0.0017
0.0017
0.0000
0.0083
0.0083
0.0133
0.0133
0.0183
0.0217
0.0167
0.0183
-0.0017
-0.0033
-0.0750
-0.0800
-0.1450
-0.1433
-0.0650
-0.0583
0.0467
0.0500
0.1183
0.1217
0.1067
0.1050
0.0650
0.0633
0.0333
0.0317
0.0183
0.0183
0.0167
0.0183
0.0150
0.0167
0.0200
0.0200
0.0150
0.0133
0.0000
0.0000
-0.0067
-0.0067
-0.0100
-0.0100
-0.0083
-0.0117
-0.0083
-0.0100
-0.0133
-0.0133
-0.0083
-0.0083
-0.0017
-0.0017
0.0033
0.0033
-0.0067
-0.0083
-0.0300
-0.0300
-0.0550
-0.0567
-0.0733
-0.0767
-0.0683
-0.0667
-0.0433
-0.0433
-0.0167
0.1
-0.0150
-0.0017
0.0000
0.0100
0.0100
0.0267
0.0267
0.0200
0.0200
-0.0167
-0.0183
-0.0767
-0.0783
-0.0967
-0.0933
-0.0083
-0.0033
0.0583
0.0600
0.0433
0.0433
0.0317
0.0317
0.0117
0.0117
-0.0083
-0.0083
-0.0150
-0.0150
-0.0233
-0.0233
-0.0183
-0.0167
-0.0083
-0.0067
0.0033
0.0050
0.0233
0.0250
0.0500
0.0517
0.0917
0.0950
0.1633
0.1350
0.1717
0.1567
-0.0067
0.0000
0.3500
0.4350
0.3617
0.3617
0.3200
0.3100
0.0217
0.0167
-0.0650
-0.0683
-0.1350
-0.1383
-0.1850
-0.1850
-0.2150
-0.2167
-0.2283
-0.2300
-0.2267
-0.2283
-0.2183
-0.2183
-0.2067
-0.2067
-0.1917
-0.1917
-0.1767
-0.1767
-0.1617
-0.1617
-0.1500
-0.1500
-0.1333
-0.1333
-0.1183
-0.1200
-0.1067
-0.1067
-0.1000
-0.1000
-0.0967
-0.0983
-0.0967
-0.0983
-0.0950
-0.0967
-0.0917
-0.0933
-0.0883
-0.0867
-0.0800
-0.0783
-0.0817
-0.0800
-0.0833
-0.0800
-0.0750
-0.0767
-0.0800
-0.0800
-0.0917
-0.0933
-0.1000
-0.0967
-0.0750
-0.0733
-0.0450
-0.0433
-0.0100
-0.0083
0.0067
0.0067
-0.0050
-0.0067
-0.0300
-0.0300
-0.0400
-0.0400
-0.0417
-0.0417
-0.0383
-0.0400
-0.0333
-0.0333
-0.0283
-0.0283
-0.0217
-0.0233
-0.0150
-0.0150
-0.0083
-0.0083
0.0000
0.0000
0.0233
0.0250
0.0517
0.0550
-0.0467
-0.0533
0.3383
0.2717
-0.0067
0.1883
-0.3217
-0.3100
-0.3467
-0.3067
-0.1267
-0.1200
-0.0583
-0.0533
-0.0617
-0.0617
-0.0700
-0.0717
-0.0667
-0.0667
-0.0567
-0.0583
-0.0517
-0.0483
-0.0517
-0.0483
-0.0450
-0.0467
-0.0417
-0.0417
-0.0383
-0.0383
-0.0350
-0.0367
-0.0333
-0.0350
-0.0300
-0.0300
-0.0267
-0.0267
-0.0333
-0.0333
-0.0383
-0.0383
-0.0467
-0.0450
-0.0500
-0.0500
-0.0550
-0.0550
-0.0600
-0.0583
-0.0617
-0.0600
-0.0633
-0.0617
-0.0567
-0.0567
-0.0483
-0.0467
-0.0383
-0.0383
-0.0417
-0.0400
-0.0350
-0.0383
-0.0350
-0.0350
-0.0317
-0.0317
-0.0300
-0.0300
-0.0367
-0.0350
-0.0417
-0.0417
-0.0550
-0.0550
-0.0650
-0.0650
-0.0767
-0.0767
-0.0817
-0.0817
-0.0783
-0.0783
-0.0717
-0.0700
-0.0550
-0.0550
-0.0500
-0.0500
-0.0467
-0.0483
-0.0450
-0.0467
-0.0500
-0.0483
-0.0450
-0.0483
-0.0350
-0.0350
-0.0250
-0.0283
-0.0917
-0.0950
-0.1817
-0.1817
-0.1483
-0.1450
-0.0233
-0.0200
0.0583
0.0600
0.0667
0.0617
0.0283
0.0267
0.0033
0.0017
-0.0083
-0.0083
-0.0117
-0.0083
-0.0067
-0.0083
-0.0117
-0.0083
-0.0117
-0.0100
-0.0150
-0.0133
-0.0183
-0.0167
-0.0233
-0.0217
-0.0267
-0.0250
-0.0283
-0.0283
-0.0267
-0.0267
-0.0283
-0.0283
-0.0317
-0.0300
-0.0350
-0.0350
-0.0400
-0.0400
-0.0450
-0.0433
-0.0467
-0.0450
-0.0483
-0.0450
-0.0517
-0.0533
-0.0500
-0.0483
-0.0517
-0.0517
-0.0467
-0.0483
-0.0450
-0.0450
-0.0367
-0.0383
-0.0317
-0.0300
-0.0250
-0.0233
-0.0183
-0.0200
-0.0233
-0.0250
-0.0267
-0.0250
-0.0283
-0.0283
-0.0250
-0.0233
-0.0200
-0.0200
-0.0167
-0.0150
-0.0117
-0.0150
-0.0100
-0.0100
-0.0150
-0.0150
-0.0117
-0.0117
-0.0150
-0.0133
-0.0200
-0.0167
-0.0233
-0.0233
-0.0267
-0.0283
-0.0250
-0.0250
-0.0300
-0.0283
-0.0300
-0.0300
-0.0283
-0.0283
-0.0250
-0.0250
-0.0217
-0.0217
-0.0117
-0.0117
-0.0017
-0.0033
0.0033
0.0033
0.0067
0.0067
0.0017
0.0033
-0.0017
0.0000
-0.0033
0.0000
0.0017
0.0017
0.0067
0.0050
0.0083
0.0083
0.0050
0.0067
0.0083
0.0083
0.0050
0.0067
0.0083
0.0083
0.0100
0.0100
0.0067
0.0083
0.0050
0.0067
0.0050
0.0067
0.0083
0.0083
0.0117
0.0133
0.0100
0.0150
0.0183
0.0183
0.0267
0.0267
0.0283
0.0300
0.0333
0.0317
0.0233
0.0217
0.0033
0.0033
-0.0100
-0.0117
-0.0083
-0.0100
0.0017
0.0033
0.0217
0.0233
0.0383
0.0383
0.0417
0.0400
0.0183
0.0183
-0.0017
-0.0017
-0.0117
-0.0133
-0.0050
-0.0050
0.0067
0.0067
0.0083
0.0083
0.0100
0.0117
0.0200
0.0200
0.0350
0.0350
0.0517
0.0533
0.0450
0.0450
0.0033
0.0000
-0.0600
-0.0617
-0.0783
-0.0683
0.0150
0.0183
0.0533
0.0517
0.0433
0.0400
0.0600
0.0617
0.0683
0.0667
0.0517
0.0533
0.0583
0.0583
0.0633
0.0633
0.0700
0.0700
0.0617
0.0600
0.0483
0.0467
0.0500
0.0500
0.0667
0.0683
0.0800
0.0800
0.0950
0.0950
0.1000
0.1000
0.0883
0.0883
0.0783
0.0817
0.0867
0.0867
0.1033
0.1033
0.1300
0.1317
0.1667
0.1683
0.2350
0.2617
0.0933
0.0817
0.1217
0.1250
0.1900
0.1917
0.2733
0.2617
0.3317
0.3300
0.2000
0.2067
0.4000
0.3000
0.3717
0.3717
0.3883
0.3867
0.3500
0.3483
0.2800
0.2767
0.1133
0.0533
0.3583
0.3967
0.0600
0.3017
-0.1100
-0.1250
-0.2600
-0.2617
-0.1783
-0.1750
-0.1033
-0.1017
-0.0650
-0.0633
-0.0333
-0.0317
-0.0067
-0.0050
0.0217
0.0217
0.0467
0.0467
0.0617
0.0617
0.0767
0.0783
0.0867
0.0867
0.0883
0.0850
0.0883
0.0883
0.1000
0.1000
0.1133
0.1133
0.1267
0.1283
0.1383
0.1417
0.1233
0.1217
0.0500
0.0433
-0.0200
-0.0183
0.0550
0.0617
0.1583
0.1617
0.2183
0.2250
0.1883
0.1833
0.0683
0.0650
0.1117
0.1150
0.1950
0.1983
0.2117
0.2083
0.1783
0.1767
0.1533
0.1517
0.1450
0.1467
0.1433
0.1450
0.1367
0.1367
0.1233
0.1233
0.1067
0.1067
0.0967
0.0950
0.0900
0.0917
0.0933
0.0900
0.0933
0.0933
0.0900
0.0900
0.0883
0.0900
0.0867
0.0883
0.0833
0.0833
0.0733
0.0750
0.0700
0.0700
0.0733
0.0700
0.0650
0.0650
0.0517
0.0517
0.0383
0.0400
0.0267
0.0267
0.0167
0.0150
0.0067
0.0067
-0.0033
-0.0033
-0.0167
-0.0167
-0.0283
-0.0267
-0.0350
-0.0333
-0.0417
-0.0417
-0.0500
-0.0500
-0.0550
-0.0533
-0.0550
-0.0533
-0.0583
-0.0583
-0.0617
-0.0633
-0.0583
-0.0583
-0.0567
-0.0583
-0.0533
-0.0533
-0.0500
-0.0517
-0.0483
-0.0483
-0.0450
-0.0467
-0.0433
-0.0450
-0.0417
-0.0433
-0.0450
-0.0433
-0.0450
-0.0450
-0.0467
-0.0450
-0.0383
-0.0400
-0.0283
-0.0283
-0.0167
-0.0167
-0.0083
-0.0083
-0.0050
-0.0067
-0.0100
-0.0117
-0.0133
-0.0133
-0.0183
-0.0167
-0.0217
-0.0217
-0.0233
-0.0250
-0.0283
-0.0267
-0.0300
-0.0300
-0.0317
-0.0333
-0.0267
-0.0300
-0.0217
-0.0200
-0.0133
-0.0150
-0.0167
-0.0150
-0.0100
-0.0100
-0.0083
-0.0083
-0.0050
-0.0067
-0.0150
-0.0150
-0.0100
-0.0083
0.0000
0.0000
0.0100
0.0100
0.0250
0.0250
0.0467
0.0467
0.0667
0.0667
0.0783
0.0783
0.0867
0.0867
0.0883
0.0867
0.0733
0.0733
0.0600
0.0583
0.0533
0.0550
0.0517
0.0550
0.0617
0.0633
0.0600
0.0617
0.0500
0.0483
0.0300
0.0300
0.0083
0.0067
0.0017
0.0033
0.0050
0.0067
0.0150
0.0150
0.0250
0.0250
0.0233
0.0233
0.0283
0.0283
0.0250
0.0250
0.0283
0.0300
0.0400
0.0400
0.0450
0.0433
0.0483
0.0467
0.0500
0.0483
0.0400
0.0400
0.0333
0.0333
0.0283
0.0283
0.0200
0.0200
0.0183
0.0183
0.0217
0.0183
0.0167
0.0167
0.0250
0.0267
0.0300
0.0317
0.0217
0.0200
0.0150
0.0150
0.0083
0.0100
0.0017
0.0000
-0.0400
-0.0417
-0.0800
-0.0850
-0.0467
-0.0433
-0.0067
-0.0067
-0.0217
-0.0250
-0.0150
-0.0150
0.0067
0.0067
0.0133
0.0133
0.0067
0.0050
-0.0067
-0.0067
-0.0100
-0.0117
-0.0167
-0.0167
-0.0250
-0.0267
-0.0400
-0.0400
-0.0483
-0.0483
-0.0517
-0.0517
-0.0550
-0.0517
-0.0550
-0.0550
-0.0500
-0.0517
-0.0500
-0.0500
-0.0517
-0.0517
-0.0467
-0.0500
-0.0483
-0.0517
-0.0483
-0.0500
-0.0550
-0.0533
-0.0567
-0.0567
-0.0533
-0.0550
-0.0483
-0.0500
-0.0417
-0.0417
-0.0500
-0.0483
-0.0600
-0.0600
-0.0667
-0.0650
-0.0633
-0.0633
-0.0600
-0.0600
-0.0650
-0.0617
-0.0667
-0.0667
-0.0750
-0.0733
-0.0767
-0.0767
-0.0817
-0.0800
-0.0650
-0.0650
-0.0467
-0.0450
-0.0050
-0.0033
0.1050
0.1417
0.0000
-0.1483
0.0150
0.1233
-0.0617
0.1933
-0.0633
-0.0967
-0.2517
-0.2650
-0.1833
-0.1800
-0.1233
-0.1217
-0.0917
-0.0917
-0.0717
-0.0717
-0.0583
-0.0567
-0.0467
-0.0467
-0.0383
-0.0383
-0.0300
-0.0300
-0.0150
-0.0133
0.0100
0.0100
0.0467
0.0500
0.1117
0.1017
0.1600
0.1317
-0.0450
-0.0283
0.0317
-0.0033
0.0567
0.0567
0.0750
0.0717
0.0300
0.0283
-0.0417
-0.0450
-0.0967
-0.0983
-0.1383
-0.1400
-0.1567
-0.1583
-0.1667
-0.1667
-0.1633
-0.1633
-0.1583
-0.1583
-0.1433
-0.1433
-0.1367
-0.1450
-0.1883
-0.1917
-0.2550
-0.2533
-0.1867
-0.1817
-0.0733
-0.0700
-0.0017
0.0017
-0.0050
-0.0067
-0.0367
-0.0383
-0.0650
-0.0667
-0.0867
-0.0867
-0.0933
-0.0917
-0.0950
-0.0917
-0.0967
-0.0933
-0.0967
-0.0950
-0.1050
-0.1050
-0.1100
-0.1150
-0.1083
-0.1050
-0.1333
-0.1367
-0.1967
-0.1900
-0.0967
-0.0917
0.0083
0.0117
0.0283
0.0267
0.0117
0.0100
-0.0067
0.1
-0.0067
-0.0200
-0.0200
-0.0250
-0.0250
-0.0217
-0.0250
-0.0200
-0.0217
-0.0133
-0.0133
-0.0083
-0.0100
-0.0050
-0.0067
-0.0050
-0.0067
-0.0133
-0.0133
-0.0183
-0.0167
-0.0200
-0.0183
-0.0217
-0.0200
-0.0250
-0.0233
-0.0283
-0.0267
-0.0217
-0.0217
-0.0183
-0.0200
-0.0217
-0.0250
-0.0217
-0.0267
-0.0367
-0.0383
-0.0567
-0.0567
-0.0650
-0.0667
-0.0617
-0.0617
-0.0517
-0.0500
-0.0450
-0.0450
-0.0367
-0.0367
-0.0333
-0.0333
-0.0300
-0.0300
-0.0233
-0.0233
-0.0200
-0.0200
-0.0267
-0.0250
-0.0217
-0.0217
-0.0183
-0.0183
-0.0133
-0.0133
-0.0100
-0.0100
-0.0150
-0.0133
-0.0167
-0.0150
-0.0200
-0.0183
-0.0217
-0.0217
-0.0167
-0.0183
-0.0150
-0.0167
-0.0200
-0.0183
-0.0267
-0.0283
-0.0350
-0.0350
-0.0400
-0.0400
-0.0350
-0.0367
-0.0317
-0.0333
-0.0300
-0.0283
-0.0267
-0.0267
-0.0317
-0.0300
-0.0350
-0.0350
-0.0317
-0.0317
-0.0283
-0.0267
-0.0300
-0.0267
-0.0300
-0.0300
-0.0333
-0.0333
-0.0383
-0.0383
-0.0417
-0.0433
-0.0383
-0.0367
-0.0283
-0.0283
-0.0167
-0.0167
-0.0083
-0.0083
-0.0150
-0.0150
-0.0217
-0.0200
-0.0250
-0.0267
-0.0283
-0.0267
-0.0300
-0.0283
-0.0300
-0.0300
-0.0350
-0.0350
-0.0400
-0.0400
-0.0383
-0.0400
-0.0333
-0.0333
-0.0367
-0.0367
-0.0317
-0.0300
-0.0217
-0.0217
-0.0133
-0.0133
-0.0033
-0.0033
0.0050
0.0050
0.0017
0.0000
-0.0450
-0.0467
-0.0900
-0.0950
-0.0550
-0.0500
0.0217
0.0283
0.0217
0.0200
0.0033
0.0050
0.0033
0.0033
-0.0100
-0.0100
-0.0133
-0.0133
-0.0183
-0.0183
-0.0150
-0.0167
-0.0183
-0.0183
-0.0200
-0.0200
-0.0250
-0.0250
-0.0283
-0.0283
-0.0317
-0.0333
-0.0267
-0.0267
-0.0200
-0.0200
-0.0150
-0.0167
-0.0117
-0.0133
-0.0100
-0.0100
-0.0117
-0.0100
-0.0083
-0.0083
-0.0117
-0.0083
0.0000
-0.0017
0.0017
0.0017
-0.0017
0.0000
-0.0200
-0.0200
-0.0417
-0.0433
-0.0567
-0.0567
-0.0617
-0.0617
-0.0567
-0.0567
-0.0483
-0.0483
-0.0467
-0.0467
-0.0483
-0.0483
-0.0450
-0.0467
-0.0400
-0.0383
-0.0350
-0.0350
-0.0317
-0.0333
-0.0317
-0.0333
-0.0267
-0.0267
-0.0150
-0.0150
-0.0100
-0.0083
-0.0117
-0.0083
-0.0167
-0.0167
-0.0283
-0.0300
-0.0383
-0.0383
-0.0483
-0.0483
-0.0533
-0.0517
-0.0483
-0.0517
-0.0467
-0.0450
-0.0333
-0.0333
-0.0217
-0.0217
-0.0150
-0.0183
-0.0250
-0.0250
-0.0283
-0.0283
-0.0217
-0.0200
0.0083
0.0100
0.0433
0.0450
0.0583
0.0583
0.0550
0.0583
0.0700
0.0700
0.0883
0.0067
0.1933
0.1983
-0.0317
0.2350
-0.1350
-0.1417
-0.2000
-0.2150
-0.1517
-0.1483
-0.0950
-0.0933
-0.0767
-0.0767
-0.0650
-0.0650
-0.0567
-0.0567
-0.0483
-0.0500
-0.0417
-0.0417
-0.0367
-0.0367
-0.0217
-0.0217
-0.0150
-0.0133
-0.0150
-0.0133
-0.0050
-0.0067
-0.0017
-0.0033
-0.0083
-0.0083
-0.0100
-0.0083
-0.0117
-0.0083
-0.0033
-0.0033
0.0067
0.0067
0.0133
0.0150
0.0050
0.0050
-0.0533
-0.0567
-0.1450
-0.1450
-0.0950
-0.0900
0.0200
0.0233
0.0917
0.0933
0.1033
0.0950
0.0650
0.0650
0.0433
0.0433
0.0317
0.0317
0.0217
0.0217
0.0117
0.0117
0.0133
0.0133
0.0250
0.0267
0.0700
0.0933
-0.0917
-0.1133
-0.0917
-0.0900
-0.0450
-0.0433
-0.0217
-0.0217
-0.0133
-0.0133
-0.0050
-0.0050
0.0033
0.0033
0.0217
0.0233
0.0400
0.0417
0.0933
0.0967
0.1817
0.1867
0.2567
0.2583
0.1000
0.0950
0.1767
0.1767
0.1400
0.1633
0.2067
0.2083
0.1750
0.1733
0.0850
0.0817
-0.0067
-0.0083
-0.0750
-0.0767
-0.1050
-0.1050
-0.1150
-0.1150
-0.1217
-0.1217
-0.1200
-0.1217
-0.1133
-0.1133
-0.0983
-0.0983
-0.0800
-0.0783
-0.0633
-0.0633
-0.0483
-0.0500
-0.0400
-0.0400
-0.0317
-0.0333
-0.0283
-0.0283
-0.0300
-0.0283
-0.0233
-0.0233
-0.0183
-0.0183
-0.0150
-0.0167
-0.0217
-0.0200
-0.0267
-0.0250
-0.0317
-0.0250
-0.0483
-0.0517
-0.1200
-0.1150
-0.0417
-0.0383
0.0500
0.0500
0.0583
0.0517
0.0200
0.0200
0.0033
0.0033
-0.0033
-0.0033
0.0067
0.0083
0.0250
0.0267
0.0333
0.0333
0.0417
0.0417
0.0450
0.0450
0.0283
0.0267
-0.0267
-0.0283
-0.0600
-0.0583
0.0083
0.0117
0.0567
0.0583
0.0383
0.0367
0.0300
0.0300
0.0267
0.0283
0.0150
0.0150
0.0183
0.0133
0.0150
0.0167
0.0133
0.0167
0.0117
0.0133
0.0083
0.0083
0.0067
0.0083
0.0017
0.0033
0.0000
0.0000
-0.0033
0.0017
-0.0017
0.0000
0.0017
0.0000
0.0050
0.0033
0.0067
0.0067
0.0150
0.0167
0.0233
0.0233
0.0317
0.0333
0.0300
0.0317
0.0233
0.0250
0.0183
0.0183
0.0150
0.0150
0.0117
0.0133
0.0100
0.0100
0.0133
0.0100
0.0133
0.0117
0.0150
0.0100
0.0083
0.0100
0.0067
0.0083
0.0100
0.0083
0.0067
0.0083
0.0100
0.0100
0.0133
0.0133
0.0150
0.0150
0.0200
0.0200
0.0217
0.0217
0.0183
0.0183
0.0200
0.0200
0.0250
0.0233
0.0267
0.0233
0.0183
0.0183
0.0150
0.0150
0.0117
0.0133
0.0100
0.0133
0.0067
0.0083
0.0033
0.0050
0.0117
0.0117
0.0083
0.0083
0.0117
0.0117
0.0083
0.0117
-0.0033
-0.0033
-0.0200
-0.0233
-0.0200
-0.0217
-0.0150
-0.0150
-0.0083
-0.0083
-0.0067
-0.0067
-0.0017
-0.0017
0.0050
0.0050
0.0100
0.0117
0.0183
0.0167
0.0217
0.0217
0.0250
0.0233
0.0250
0.0250
0.0283
0.0267
0.0233
0.0233
0.0183
0.0200
0.0167
0.0167
0.0117
0.0117
0.0133
0.0117
0.0050
0.0050
0.0033
0.0017
0.0000
0.0000
-0.0017
-0.0017
-0.0033
-0.0050
0.0000
0.0000
0.0017
0.0033
0.0000
0.0033
0.0067
0.0067
0.0117
0.0117
0.0200
0.0200
0.0233
0.0233
0.0267
0.0267
0.0233
0.0233
0.0217
0.0233
0.0200
0.0217
0.0250
0.0250
0.0283
0.0283
0.0267
0.0267
0.0317
0.0300
0.0233
0.0233
0.0183
0.0183
0.0133
0.0133
0.0083
0.0100
0.0083
0.0100
0.0183
0.0183
0.0433
0.0433
0.0817
0.0983
0.0617
0.0233
0.1483
0.2417
0.0400
0.2433
-0.0217
-0.0517
-0.1450
-0.1917
-0.1450
-0.1417
-0.0800
-0.0783
-0.0533
-0.0533
-0.0383
-0.0367
-0.0217
-0.0200
-0.0033
-0.0017
0.0100
0.0117
0.0217
0.0200
0.0283
0.0283
0.0267
0.0267
0.0217
0.0217
0.0083
0.0083
-0.0050
-0.0050
-0.0100
-0.0100
-0.0150
-0.0167
-0.0233
-0.0250
-0.0200
-0.0200
-0.0150
-0.0133
-0.0283
-0.0300
-0.0967
-0.1000
-0.1433
-0.1400
-0.0567
-0.0517
0.0333
0.0383
0.1400
0.1633
0.0583
0.0417
-0.0350
-0.0200
0.0200
0.0217
0.0500
0.0500
0.0550
0.0517
0.0467
0.0450
0.0367
0.0367
0.0150
0.0150
-0.0050
-0.0067
-0.0167
-0.0150
-0.0083
-0.0083
0.0083
0.0083
0.0283
0.0300
0.0433
0.0433
0.0400
0.0417
0.0483
0.0467
0.0500
0.0483
0.0450
0.0467
0.0367
0.0367
0.0283
0.0283
0.0233
0.0233
0.0217
0.0200
0.0250
0.0250
0.0300
0.0283
0.0300
0.0300
0.0317
0.0300
0.0200
0.0200
0.0000
0.0000
-0.0067
-0.0067
-0.0033
-0.0017
-0.0017
-0.0017
-0.0033
-0.0017
0.0000
-0.0017
0.0017
-0.0017
-0.0067
-0.0067
0.0033
0.0050
0.0100
0.0100
0.0150
0.0117
0.0150
0.0133
0.0167
0.0150
0.0250
0.0250
0.0417
0.0433
0.0733
0.0750
0.1183
0.1217
0.1733
0.1667
0.2217
0.1600
-0.0050
0.0367
-0.0017
0.0183
0.0683
0.0683
0.1000
0.1000
0.0767
0.0733
0.0300
0.0283
-0.0083
-0.0100
-0.0333
-0.0350
-0.0500
-0.0517
-0.0633
-0.0633
-0.0683
-0.0683
-0.0717
-0.0700
-0.0717
-0.0717
-0.0683
-0.0683
-0.0633
-0.0633
-0.0733
-0.0733
-0.0883
-0.0867
-0.1233
-0.1233
-0.1500
-0.1517
-0.1617
-0.1483
-0.0300
-0.0233
0.0767
0.0783
0.1067
0.1083
0.0967
0.0967
0.0633
0.0633
0.0450
0.0433
0.0217
0.0217
0.0150
0.0167
0.0183
0.0150
0.0100
0.0100
-0.0083
-0.0100
-0.0200
-0.0183
-0.0117
-0.0117
0.0000
0.0000
0.0117
0.0117
0.0183
0.0183
0.0200
0.0200
0.0167
0.0183
0.0133
0.0133
0.0167
0.0150
0.0183
0.0183
0.0167
0.0167
0.0117
0.0117
0.0083
0.0083
0.0050
0.0033
0.0067
0.0067
0.0100
0.0083
0.0117
0.0100
0.0117
0.0133
0.0100
0.0100
0.0133
0.0133
0.0167
0.0167
0.0217
0.0167
0.0200
0.0183
0.0167
0.0167
0.0133
0.0133
0.0100
0.0117
0.0083
0.0083
0.0000
0.0017
0.0000
0.0000
-0.0017
0.0000
-0.0017
0.0000
0.0033
0.0033
0.0083
0.0083
0.0050
0.0033
0.0017
0.0033
-0.0017
-0.0017
0.0083
0.0083
0.0283
0.0300
0.0400
0.0417
0.0333
0.0333
0.0150
0.0150
0.0067
0.0067
0.0000
0.0000
0.0083
0.0083
0.0167
0.0167
0.0217
0.0217
0.0233
0.0233
0.0283
0.0250
0.0283
0.0267
0.0300
0.0300
0.0350
0.0333
0.0383
0.0367
0.0400
0.0383
0.0417
0.0383
0.0317
0.0317
0.0217
0.0217
0.0167
0.0200
0.0133
0.0133
0.0250
0.1
0.0250
0.0500
0.0517
0.0850
0.1017
0.0467
0.0233
0.1950
0.1917
-0.0083
0.2217
-0.1183
-0.1200
-0.1933
-0.1917
-0.1083
-0.1067
-0.0633
-0.0633
-0.0467
-0.0467
-0.0383
-0.0383
-0.0300
-0.0300
-0.0217
-0.0233
-0.0167
-0.0167
-0.0017
-0.0017
0.0133
0.0133
0.0167
0.0117
0.0050
0.0050
0.0033
0.0033
0.0100
0.0100
0.0167
0.0183
0.0150
0.0183
0.0083
0.0067
-0.0450
-0.0483
-0.1317
-0.1333
-0.0983
-0.0933
0.0067
0.0117
0.0867
0.0883
0.0950
0.0900
0.0583
0.0583
0.0433
0.0417
0.0367
0.0400
0.0367
0.0383
0.0300
0.0300
0.0233
0.0233
0.0183
0.0183
0.0117
0.0117
0.0067
0.0067
0.0050
0.0067
0.0050
0.0050
0.0083
0.0083
0.0050
0.0083
0.0050
0.0050
0.0017
0.0017
0.0067
0.0050
0.0117
0.0117
0.0183
0.0183
0.0217
0.0217
0.0117
0.0117
0.0033
0.0017
0.0050
0.0033
0.0100
0.0083
0.0117
0.0117
0.0083
0.0083
0.0017
0.0017
0.0233
0.0267
0.0800
0.0767
-0.0900
-0.0867
-0.0450
-0.0433
-0.0133
-0.0117
0.0050
0.0050
0.0150
0.0150
0.0200
0.0183
0.0167
0.0167
0.0100
0.0100
0.0050
0.0033
-0.0033
-0.0033
-0.0117
-0.0117
-0.0150
-0.0150
-0.0183
-0.0183
-0.0167
-0.0167
-0.0200
-0.0183
-0.0117
-0.0133
-0.0067
-0.0067
-0.0017
-0.0017
-0.0050
-0.0067
-0.0150
-0.0150
-0.0200
-0.0183
-0.0200
-0.0167
-0.0200
-0.0200
-0.0167
-0.0167
-0.0150
-0.0150
-0.0117
-0.0133
-0.0100
-0.0100
0.0017
0.0033
0.0133
0.0133
0.0083
0.0083
0.0033
0.0033
0.0000
0.0000
0.0050
0.0050
0.0100
0.0100
0.0067
0.0067
0.0117
0.0083
0.0133
0.0133
0.0250
0.0250
0.0317
0.0300
0.0183
0.0183
0.0117
0.0117
0.0133
0.0133
0.0083
0.0083
0.0033
0.0033
0.0000
0.0000
-0.0017
-0.0017
-0.0033
-0.0033
-0.0017
-0.0017
0.0000
0.0000
0.0033
0.0033
0.0083
0.0083
0.0117
0.0117
0.0050
0.0033
-0.0333
-0.0367
-0.0733
-0.0783
-0.0383
-0.0333
0.0350
0.0400
0.0283
0.0267
0.0117
0.0133
0.0033
0.0017
-0.0233
-0.0250
-0.0383
-0.0383
-0.0450
-0.0433
-0.0350
-0.0350
-0.0283
-0.0283
-0.0217
-0.0217
-0.0233
-0.0217
-0.0150
-0.0150
-0.0033
-0.0033
-0.0167
-0.0183
-0.0233
-0.0217
-0.0117
-0.0117
0.0017
0.0033
0.0183
0.0183
0.0250
0.0267
0.0367
0.0367
0.0467
0.0467
0.0633
0.0650
0.0933
0.0950
0.1567
0.1500
0.2133
0.1933
-0.0383
-0.0833
-0.0150
-0.0167
0.0333
0.0367
0.0983
0.0983
0.0750
0.0717
0.0117
0.0100
-0.0500
-0.0517
-0.1167
-0.1217
-0.2400
-0.2433
-0.2000
-0.1967
-0.1083
-0.1050
-0.0650
-0.0650
-0.0483
-0.0483
-0.0383
-0.0367
-0.0417
-0.0433
-0.0533
-0.0533
-0.0617
-0.0633
-0.0600
-0.0633
-0.0583
-0.0600
-0.0550
-0.0550
-0.0417
-0.0400
-0.0267
-0.0250
-0.0217
-0.0200
-0.0233
-0.0217
-0.0333
-0.0350
-0.0417
-0.0433
-0.0400
-0.0400
-0.0217
-0.0200
0.0300
0.0333
0.0683
0.0617
0.0017
0.1717
0.0083
-0.0200
0.1850
0.1750
-0.1483
-0.1500
-0.2183
-0.1783
-0.1067
-0.1050
-0.0767
-0.0767
-0.0683
-0.0650
-0.0700
-0.0700
-0.0633
-0.0633
-0.0483
-0.0483
-0.0367
-0.0350
-0.0400
-0.0383
-0.0300
-0.0300
-0.0267
-0.0267
-0.0283
-0.0267
-0.0350
-0.0333
-0.0267
-0.0267
-0.0550
-0.0583
-0.1317
-0.1350
-0.1467
-0.1350
-0.0283
-0.0250
0.0450
0.0483
0.0667
0.0617
0.0283
0.0267
-0.0050
-0.0067
-0.0183
-0.0200
-0.0233
-0.0217
-0.0250
-0.0217
-0.0200
-0.0183
-0.0150
-0.0133
-0.0167
-0.0133
-0.0083
-0.0100
-0.0017
-0.0017
0.0017
0.0000
0.0050
0.0050
0.0117
0.0117
0.0183
0.0183
0.0250
0.0250
0.0300
0.0300
0.0267
0.0250
0.0150
0.0150
0.0017
0.0000
-0.0100
-0.0083
-0.0117
-0.0150
-0.0100
-0.0100
-0.0017
-0.0017
0.0083
0.0083
0.0200
0.0183
0.0217
0.0183
0.0050
0.0033
-0.0100
-0.0100
-0.0167
-0.0183
-0.0133
-0.0150
-0.0117
-0.0117
-0.0100
-0.0100
-0.0133
-0.0133
-0.0117
-0.0133
-0.0100
-0.0100
-0.0083
-0.0083
-0.0050
-0.0050
-0.0100
-0.0100
-0.0167
-0.0183
-0.0150
-0.0150
-0.0133
-0.0133
-0.0150
-0.0150
-0.0117
-0.0117
-0.0083
-0.0083
-0.0067
-0.0067
0.0000
0.0000
0.0050
0.0050
0.0117
0.0133
0.0200
0.0200
0.0417
0.0450
0.0983
0.0983
-0.0783
-0.0783
-0.0550
-0.0533
-0.0317
-0.0317
-0.0183
-0.0183
-0.0133
-0.0133
-0.0117
-0.0117
-0.0083
-0.0083
-0.0050
-0.0050
0.0017
0.0017
0.0100
0.0100
0.0200
0.0200
0.0233
0.0233
0.0267
0.0267
0.0283
0.0267
0.0200
0.0200
0.0100
0.0083
-0.0067
-0.0067
-0.0167
-0.0167
-0.0217
-0.0183
-0.0217
-0.0217
-0.0133
-0.0117
0.0000
0.0017
0.0133
0.0150
0.0217
0.0217
0.0150
0.0150
0.0133
0.0150
0.0133
0.0150
0.0117
0.0133
0.0117
0.0117
0.0100
0.0117
0.0200
0.0200
0.0133
0.0133
0.0083
0.0083
0.0017
0.0033
0.0000
0.0033
0.0083
0.0083
0.0117
0.0100
0.0133
0.0117
0.0150
0.0133
0.0183
0.0167
0.0150
0.0150
0.0117
0.0117
0.0083
0.0100
0.0067
0.0067
0.0083
0.0083
0.0100
0.0100
0.0133
0.0150
0.0117
0.0117
0.0067
0.0067
0.0133
0.0133
0.0167
0.0167
0.0083
0.0083
-0.0283
-0.0300
-0.0600
-0.0633
-0.0217
-0.0183
0.0450
0.0483
0.0417
0.0400
0.0317
0.0383
0.0500
0.0500
0.0583
0.0567
0.0667
0.0600
0.0567
0.0600
0.0567
0.0583
0.0550
0.0550
0.0600
0.0617
0.0683
0.0700
0.0733
0.0717
0.0667
0.0667
0.0617
0.0617
0.0550
0.0550
0.0500
0.0500
0.0467
0.0483
0.0433
0.0450
0.0417
0.0417
0.0333
0.0333
0.0267
0.0267
0.0233
0.0250
0.0283
0.0267
0.0317
0.0317
0.0383
0.0383
0.0367
0.0367
0.0400
0.0383
0.0417
0.0417
0.0500
0.0500
0.0467
0.0467
0.0450
0.0467
0.0417
0.0433
0.0383
0.0383
0.0350
0.0350
0.0367
0.0367
0.0317
0.0333
0.0300
0.0300
0.0283
0.0317
0.0283
0.0283
0.0217
0.0217
0.0150
0.0150
0.0067
0.0083
0.0050
0.0050
0.0067
0.0033
0.0200
0.0200
0.0550
0.0567
0.0733
0.0733
0.0750
0.0733
0.0750
0.0733
0.0683
0.0683
0.0700
0.0683
0.0750
0.0733
0.1000
0.1017
0.1533
0.1583
0.2300
0.2383
0.0783
0.0650
-0.0567
-0.0417
0.0300
0.0317
0.1100
0.1133
0.1383
0.1367
0.1067
0.1050
0.0567
0.0550
0.0167
0.0083
0.0167
0.0167
0.0300
0.0417
-0.0017
-0.0200
0.1150
0.0783
-0.0683
0.1200
-0.1783
-0.1750
-0.2433
-0.2317
-0.1383
-0.1350
-0.1000
-0.0917
-0.1017
-0.1017
-0.2000
-0.2067
-0.3033
-0.2917
-0.1500
-0.1417
-0.0017
0.0017
0.0667
0.0700
0.0533
0.0533
0.0233
0.0217
0.0033
0.0017
-0.0050
-0.0050
-0.0067
-0.0067
-0.0150
-0.0150
-0.0233
-0.0233
-0.0300
-0.0317
-0.0300
-0.0317
-0.0283
-0.0267
-0.0300
-0.0267
-0.0300
-0.0300
-0.0317
-0.0300
-0.0267
-0.0283
-0.0233
-0.0233
-0.0200
-0.0200
-0.0167
-0.0167
-0.0150
-0.0167
-0.0150
-0.0133
-0.0167
-0.0167
-0.0150
-0.0167
-0.0200
-0.0217
-0.0183
-0.0217
-0.0183
-0.0200
-0.0233
-0.0233
-0.0217
-0.0233
-0.0183
-0.0183
-0.0067
-0.0050
0.0100
0.0100
0.0183
0.0183
0.0200
0.0183
0.0017
0.0017
-0.0300
-0.0317
-0.0467
-0.0467
-0.0450
-0.0450
-0.0367
-0.0383
-0.0333
-0.0333
-0.0300
-0.0283
-0.0317
-0.0300
-0.0367
-0.0367
-0.0383
-0.0400
-0.0367
-0.0383
-0.0417
-0.0417
-0.0483
-0.0483
-0.0450
-0.0450
-0.0417
-0.0400
-0.0317
-0.0317
-0.0150
-0.0150
0.0450
0.0583
-0.1083
-0.1150
-0.0783
-0.0750
-0.0350
-0.0333
-0.0067
-0.0050
0.0067
0.0050
0.0083
0.0083
0.0133
0.0083
0.0017
0.0017
-0.0067
-0.0067
-0.0083
-0.0083
-0.0067
-0.0083
-0.0117
-0.0117
-0.0150
-0.0150
-0.0183
-0.0183
-0.0250
-0.0233
-0.0283
-0.0283
-0.0267
-0.0300
-0.0217
-0.0217
-0.0150
-0.0150
-0.0183
-0.0183
-0.0167
-0.0150
-0.0200
-0.0200
-0.0283
-0.0267
-0.0367
-0.0367
-0.0300
-0.0300
-0.0233
-0.0233
-0.0083
-0.0100
0.0000
0.0000
-0.0050
-0.0050
-0.0150
-0.0167
-0.0367
-0.0367
-0.0750
-0.0767
-0.1150
-0.1200
-0.0933
-0.0900
0.0067
0.0100
0.0350
0.0333
0.0200
0.0183
0.0233
0.0233
0.0117
0.0100
-0.0033
-0.0050
-0.0233
-0.0233
-0.0250
-0.0233
-0.0267
-0.0250
-0.0267
-0.0233
-0.0283
-0.0283
-0.0267
-0.0267
-0.0300
-0.0283
-0.0333
-0.0317
-0.0283
-0.0283
-0.0217
-0.0217
-0.0117
-0.0117
0.0000
-0.0017
-0.0050
-0.0050
-0.0150
-0.0133
-0.0217
-0.0200
-0.0233
-0.0217
-0.0250
-0.0250
-0.0233
-0.0233
-0.0217
-0.0217
-0.0183
-0.0200
-0.0167
-0.0167
-0.0133
-0.0117
-0.0150
-0.0150
-0.0200
-0.0183
-0.0217
-0.0217
-0.0250
-0.0233
-0.0250
-0.0250
-0.0217
-0.0233
-0.0167
-0.0183
-0.0150
-0.0150
-0.0117
-0.0133
-0.0150
-0.0150
-0.0183
-0.0167
-0.0200
-0.0200
-0.0233
0.1
-0.0233
-0.0200
-0.0217
-0.0250
-0.0233
-0.0267
-0.0300
-0.0267
-0.0267
-0.0233
-0.0233
-0.0200
-0.0217
-0.0233
-0.0233
-0.0217
-0.0233
-0.0200
-0.0217
-0.0250
-0.0233
-0.0200
-0.0217
-0.0200
-0.0200
-0.0167
-0.0167
-0.0133
-0.0117
-0.0150
-0.0150
-0.0133
-0.0133
-0.0150
-0.0133
-0.0167
-0.0167
-0.0150
-0.0150
-0.0167
-0.0167
-0.0150
-0.0183
-0.0117
-0.0100
-0.0133
-0.0067
-0.0117
-0.0117
-0.0233
-0.0233
-0.0283
-0.0283
-0.0367
-0.0367
-0.0283
-0.0267
-0.0117
-0.0100
-0.0033
-0.0033
-0.0117
-0.0133
-0.0233
-0.0233
-0.0283
-0.0267
-0.0250
-0.0267
-0.0217
-0.0267
-0.0217
-0.0300
-0.0267
-0.0300
-0.0350
-0.0333
-0.0367
-0.0367
-0.0333
-0.0350
-0.0267
-0.0267
-0.0183
-0.0167
-0.0067
-0.0067
0.0050
0.0050
-0.0017
-0.0033
0.0000
-0.0033
-0.0100
-0.0100
-0.0167
-0.0183
-0.0150
-0.0167
-0.0200
-0.0200
-0.0183
-0.0200
-0.0133
-0.0133
-0.0083
-0.0067
-0.0100
-0.0083
-0.0117
-0.0117
-0.0100
-0.0117
-0.0167
-0.0167
-0.0200
-0.0183
-0.0200
-0.0183
-0.0217
-0.0200
-0.0250
-0.0233
-0.0267
-0.0250
-0.0283
-0.0300
-0.0250
-0.0267
-0.0200
-0.0183
-0.0083
-0.0083
0.0017
0.0000
0.0033
0.0033
0.0050
0.0033
0.0117
0.0117
0.0200
0.0217
0.0167
0.0167
0.0100
0.0100
0.0000
0.0000
0.0017
0.0000
0.0033
0.0033
0.0133
0.0150
0.0367
0.0383
0.0633
0.0633
-0.0100
-0.0133
0.1517
-0.0083
0.1383
0.1600
-0.1533
-0.1383
-0.1950
-0.1700
-0.0850
-0.0833
-0.0500
-0.0500
-0.0400
-0.0400
-0.0350
-0.0417
-0.0900
-0.0933
-0.1567
-0.1583
-0.1100
-0.1033
-0.0117
-0.0083
0.0667
0.0683
0.0867
0.0850
0.0733
0.0700
0.0733
0.0700
0.0717
0.0700
0.0617
0.0617
0.0367
0.0350
0.0300
0.0317
0.0450
0.0467
0.1017
0.1050
0.1917
0.2117
0.0417
0.0283
-0.0533
-0.0583
-0.0983
-0.0533
0.0183
0.0183
-0.0300
-0.0300
-0.0017
0.0000
0.0300
0.0300
-0.0100
-0.0133
-0.0700
-0.0700
-0.1000
-0.1000
-0.1033
-0.1000
-0.0767
-0.0767
-0.0433
-0.0433
-0.0217
-0.0217
-0.0183
-0.0200
-0.0283
-0.0283
-0.0350
-0.0350
-0.0333
-0.0333
-0.0250
-0.0267
-0.0233
-0.0233
-0.0250
-0.0217
-0.0250
-0.0217
-0.0183
-0.0200
-0.0133
-0.0133
-0.0150
-0.0133
-0.0067
-0.0100
0.0017
0.0017
0.0133
0.0150
0.0567
0.0933
0.0500
0.0350
-0.0733
-0.0600
-0.0250
-0.0233
-0.0033
-0.0033
0.0067
0.0067
0.0133
0.0150
0.0200
0.0200
0.0167
0.0167
0.0117
0.0133
0.0033
0.0050
0.0000
0.0000
0.0033
0.0033
0.0000
0.0017
0.0033
0.0033
0.0067
0.0050
0.0100
0.0100
0.0117
0.0083
0.0133
0.0083
0.0117
0.0117
0.0083
0.0117
0.0183
0.0200
0.0250
0.0250
0.0200
0.0217
0.0183
0.0183
0.0117
0.0117
0.0083
0.0100
0.0050
0.0083
0.0133
0.0133
0.0117
0.0117
0.0133
0.0133
0.0000
-0.0017
-0.0417
-0.0433
-0.0967
-0.0983
-0.1183
-0.1033
-0.0200
-0.0167
0.0133
0.0133
0.0017
0.0000
0.0117
0.0117
0.0167
0.0167
0.0133
0.0167
0.0200
0.0200
0.0317
0.0333
0.0450
0.0467
0.0383
0.0383
0.0317
0.0317
0.0233
0.0250
0.0200
0.0200
0.0150
0.0133
0.0167
0.0150
0.0167
0.0183
0.0150
0.0167
0.0133
0.0133
0.0183
0.0183
0.0200
0.0200
0.0217
0.0233
0.0300
0.0283
0.0350
0.0350
0.0367
0.0367
0.0333
0.0333
0.0233
0.0233
0.0067
0.0067
-0.0133
-0.0133
-0.0300
-0.0300
-0.0483
-0.0467
-0.0533
-0.0533
-0.0467
-0.0467
-0.0267
-0.0250
-0.0017
0.0017
-0.0067
-0.0083
-0.0217
-0.0217
-0.0317
-0.0317
-0.0300
-0.0317
-0.0250
-0.0250
-0.0150
-0.0150
-0.0067
-0.0067
0.0017
0.0017
0.0067
0.0067
0.0150
0.0150
0.0300
0.0300
0.0367
0.0383
0.0333
0.0333
0.0267
0.0250
0.0183
0.0183
0.0117
0.0133
0.0067
0.0100
0.0067
0.0083
0.0100
0.0083
0.0117
0.0117
0.0133
0.0150
0.0117
0.0117
0.0150
0.0117
0.0067
0.0067
0.0000
0.0000
-0.0067
-0.0067
-0.0133
-0.0117
-0.0183
-0.0167
-0.0217
-0.0200
-0.0233
-0.0233
-0.0250
-0.0250
-0.0267
-0.0267
-0.0233
-0.0233
-0.0250
-0.0233
-0.0250
-0.0233
-0.0250
-0.0233
-0.0217
-0.0233
-0.0200
-0.0217
-0.0250
-0.0250
-0.0217
-0.0233
-0.0217
-0.0217
-0.0233
-0.0217
-0.0250
-0.0250
-0.0233
-0.0250
-0.0283
-0.0267
-0.0250
-0.0250
-0.0233
-0.0267
-0.0233
-0.0217
-0.0283
-0.0283
-0.0317
-0.0300
-0.0233
-0.0233
-0.0267
-0.0267
-0.0283
-0.0283
-0.0317
-0.0300
-0.0267
-0.0300
-0.0217
-0.0217
-0.0100
-0.0100
0.0100
0.0117
0.0317
0.0333
0.0517
0.0533
0.0750
0.0750
0.0833
0.0833
0.0917
0.0917
0.0733
0.0733
-0.0733
-0.1000
0.0567
-0.0800
0.0767
0.2133
-0.0667
-0.0250
-0.0883
-0.0883
-0.0433
-0.0433
-0.0233
-0.0233
-0.0267
-0.0283
-0.0367
-0.0367
-0.0417
-0.0400
-0.0367
-0.0367
-0.0250
-0.0250
-0.0167
-0.0167
-0.0133
-0.0150
-0.0067
-0.0067
-0.0050
-0.0050
-0.0100
-0.0100
-0.0200
-0.0217
-0.0233
-0.0233
-0.0217
-0.0233
-0.0250
-0.0250
-0.0200
-0.0200
-0.0133
-0.0133
-0.0083
-0.0083
-0.0067
-0.0033
-0.0083
-0.0083
-0.0117
-0.0133
-0.0167
-0.0167
-0.0200
-0.0183
-0.0133
-0.0150
-0.0133
-0.0117
-0.0150
-0.0133
-0.0083
-0.0083
-0.0050
-0.0050
-0.0067
-0.0050
0.0017
0.0017
0.0083
0.0083
0.0133
0.0133
0.0100
0.0100
-0.0083
-0.0083
-0.0267
-0.0267
-0.0433
-0.0433
-0.0383
-0.0383
-0.0233
-0.0217
-0.0133
-0.0133
-0.0083
-0.0083
-0.0050
-0.0067
-0.0033
-0.0050
-0.0083
-0.0050
-0.0067
-0.0067
-0.0117
-0.0100
-0.0117
-0.0117
-0.0083
-0.0100
-0.0050
-0.0050
0.0017
0.0033
0.0050
0.0017
0.0050
0.0050
0.0000
0.0017
-0.0083
-0.0083
-0.0200
-0.0200
-0.0267
-0.0267
-0.0300
-0.0283
-0.0250
-0.0267
-0.0233
-0.0233
-0.0183
-0.0167
-0.0200
-0.0167
-0.0133
-0.0133
-0.0150
-0.0133
-0.0117
-0.0117
-0.0150
-0.0133
-0.0150
-0.0150
-0.0117
-0.0117
-0.0133
-0.0100
-0.0133
-0.0133
-0.0167
-0.0150
-0.0250
-0.0250
-0.0367
-0.0350
-0.0417
-0.0417
-0.0450
-0.0450
-0.0417
-0.0417
-0.0383
-0.0400
-0.0367
-0.0383
-0.0350
-0.0350
-0.0367
-0.0350
-0.0150
-0.0150
0.0167
0.0183
0.0517
0.0533
0.1100
0.1333
0.0067
-0.0067
-0.0400
-0.0117
0.0417
0.0450
0.0783
0.0800
0.1283
0.1300
0.1933
0.1867
0.2483
0.2183
-0.0150
-0.0133
0.0367
0.0400
0.0833
0.0850
0.1167
0.1167
0.0533
0.0483
-0.0467
-0.0483
-0.0200
-0.0167
0.0217
0.0217
0.0000
-0.0017
-0.0417
-0.0433
-0.0767
-0.0767
-0.1000
-0.1000
-0.1067
-0.1067
-0.0967
-0.0967
-0.0733
-0.0717
-0.0550
-0.0533
-0.0467
-0.0467
-0.0433
-0.0433
-0.0417
-0.0400
-0.0300
-0.0300
-0.0133
-0.0133
-0.0050
-0.0033
-0.0167
-0.0183
-0.0583
-0.0583
-0.0717
-0.0617
0.0100
0.0117
0.0350
0.0333
0.0167
0.0133
0.0217
0.0217
0.0317
0.0317
0.0350
0.0400
0.0300
0.0300
0.0167
0.0150
-0.0067
-0.0067
-0.0283
-0.0283
-0.0383
-0.0383
-0.0417
-0.0383
-0.0267
-0.0267
-0.0100
-0.0100
0.0067
0.0067
0.0150
0.0150
0.0217
0.0217
0.0250
0.0233
0.0200
0.0183
0.0133
0.0117
0.0000
0.0000
-0.0067
-0.0067
-0.0083
-0.0067
0.0067
0.0083
0.0300
0.0317
0.0417
0.0417
0.0383
0.0400
0.0333
0.0383
0.0350
0.0350
0.0383
0.0417
0.0367
0.0350
0.0150
0.0133
0.0017
0.0000
0.0033
0.0017
-0.0033
-0.0033
0.0017
0.0000
0.0067
0.0067
0.0150
0.0150
0.0217
0.0233
0.0183
0.0183
0.0100
0.0083
-0.0367
-0.0400
-0.1183
-0.1217
-0.0883
-0.0833
0.0250
0.0283
0.1033
0.1150
0.1033
0.1017
0.0633
0.0617
0.0383
0.0367
0.0267
0.0267
0.0233
0.0233
0.0167
0.0167
0.0117
0.0100
0.0133
0.0150
0.0233
0.0233
0.0267
0.0267
0.0350
0.0350
0.0433
0.0433
0.0550
0.0550
0.0883
0.0900
0.1117
0.1067
0.0433
0.1933
0.0367
0.0300
0.2167
0.1083
-0.1417
-0.1233
-0.1867
-0.1483
-0.0800
-0.0783
-0.0533
-0.0533
-0.0467
-0.0467
-0.0433
-0.0450
-0.0417
-0.0417
-0.0383
-0.0383
-0.0333
-0.0333
-0.0267
-0.0267
-0.0200
-0.0217
-0.0183
-0.0183
-0.0133
-0.0133
-0.0117
-0.0133
-0.0083
-0.0067
-0.0017
-0.0050
0.0000
0.0000
-0.0017
-0.0017
0.0000
-0.0017
-0.0050
-0.0050
-0.0133
-0.0133
-0.0200
-0.0183
-0.0133
-0.0150
-0.0167
-0.0167
-0.0133
-0.0150
-0.0117
-0.0117
-0.0100
-0.0117
-0.0150
-0.0150
-0.0133
-0.0150
-0.0117
-0.0133
-0.0067
-0.0083
0.0000
0.0000
0.0133
0.0150
0.0100
0.0100
0.0067
0.0067
0.0033
0.0050
0.0017
0.0017
0.0000
0.0000
0.0033
0.0017
0.0067
0.0050
0.0067
0.0050
0.0150
0.0167
0.0267
0.0267
0.0317
0.0317
0.0267
0.0267
0.0200
0.0200
0.0167
0.0167
0.0100
0.0117
0.0083
0.0100
0.0067
0.0067
0.0017
0.0017
-0.0067
0.1
-0.0067
-0.0117
-0.0117
-0.0183
-0.0183
-0.0150
-0.0183
-0.0150
-0.0133
-0.0117
-0.0133
-0.0100
-0.0100
-0.0050
-0.0033
-0.0067
-0.0033
0.0000
0.0000
0.0033
0.0033
0.0067
0.0050
0.0067
0.0067
0.0033
0.0033
0.0017
0.0033
0.0017
0.0017
-0.0017
0.0000
-0.0033
-0.0017
-0.0067
-0.0067
-0.0083
-0.0083
-0.0100
-0.0100
-0.0150
-0.0167
-0.0200
-0.0200
-0.0233
-0.0233
-0.0167
-0.0167
-0.0100
-0.0117
-0.0067
-0.0067
-0.0083
-0.0067
-0.0033
-0.0033
-0.0017
-0.0017
0.0000
-0.0017
0.0017
0.0000
0.0017
0.0000
0.0033
0.0017
0.0050
0.0067
0.0133
0.0150
0.0167
0.0167
0.0083
0.0083
-0.0100
-0.0117
-0.0417
-0.0417
-0.0633
-0.0650
-0.0767
-0.0750
-0.0667
-0.0650
-0.0500
-0.0500
-0.0383
-0.0383
-0.0367
-0.0383
-0.0450
-0.0450
-0.0500
-0.0467
-0.0500
-0.0517
-0.0467
-0.0467
-0.0367
-0.0367
-0.0267
-0.0283
-0.0217
-0.0217
-0.0200
-0.0217
-0.0167
-0.0133
-0.0183
-0.0150
-0.0233
-0.0233
-0.0300
-0.0300
-0.0383
-0.0383
-0.0333
-0.0350
-0.0317
-0.0300
-0.0333
-0.0300
-0.0350
-0.0350
-0.0383
-0.0350
-0.0033
0.0183
-0.1183
-0.1300
-0.1583
-0.1383
-0.0933
-0.0917
-0.0633
-0.0633
-0.0467
-0.0467
-0.0417
-0.0417
-0.0367
-0.0400
-0.0483
-0.0467
-0.0533
-0.0533
-0.0567
-0.0533
-0.0467
-0.0450
-0.0683
-0.0717
-0.1100
-0.1150
-0.0883
-0.0867
-0.0100
-0.0083
-0.0017
-0.0067
0.0017
0.0033
0.0483
0.0500
0.0917
0.0933
0.1317
0.1700
0.1067
0.0967
-0.0933
-0.0800
0.0450
0.0467
0.0917
0.0917
0.1150
0.1117
0.0700
0.0683
-0.0017
-0.0033
-0.0683
-0.0700
-0.1117
-0.1150
-0.1400
-0.1417
-0.1583
-0.1617
-0.1567
-0.1583
-0.1950
-0.1983
-0.2383
-0.2217
-0.1400
-0.1350
-0.0583
-0.0583
-0.0433
-0.0450
-0.0567
-0.0567
-0.0683
-0.0683
-0.0783
-0.0783
-0.0833
-0.0800
-0.0733
-0.0733
-0.0583
-0.0583
-0.0550
-0.0567
-0.0583
-0.0583
-0.0617
-0.0600
-0.0533
-0.0517
-0.0433
-0.0417
-0.0283
-0.0267
-0.0333
-0.0350
-0.0833
-0.0867
-0.1550
-0.1550
-0.1067
-0.1000
0.0033
0.0067
0.0833
0.0867
0.0983
0.0917
0.0617
0.0600
0.0400
0.0400
0.0350
0.0350
0.0400
0.0400
0.0600
0.0600
0.0900
0.1067
0.0817
0.0783
0.0083
0.2300
0.0683
0.0683
0.2600
0.0433
-0.1533
-0.1083
-0.1717
-0.1400
-0.0767
-0.0750
-0.0483
-0.0483
-0.0383
-0.0367
-0.0283
-0.0283
-0.0367
-0.0383
-0.0433
-0.0450
-0.0417
-0.0417
-0.0350
-0.0350
-0.0233
-0.0233
-0.0117
-0.0100
0.0033
0.0033
0.0167
0.0167
0.0233
0.0233
0.0283
0.0300
0.0267
0.0267
0.0233
0.0233
0.0200
0.0183
0.0217
0.0233
0.0267
0.0267
0.0350
0.0367
0.0400
0.0400
0.0383
0.0400
0.0483
0.0483
0.0533
0.0517
0.0550
0.0550
0.0583
0.0583
0.0600
0.0600
0.0483
0.0500
0.0450
0.0433
0.0300
0.0317
0.0200
0.0183
0.0117
0.0100
0.0167
0.0167
0.0217
0.0233
0.0317
0.0317
0.0400
0.0400
0.0417
0.0400
0.0433
0.0400
0.0467
0.0467
0.0567
0.0567
0.0700
0.0717
0.0883
0.0883
0.0983
0.0983
0.0917
0.0900
0.0833
0.0833
0.0767
0.0750
0.0633
0.0633
0.0533
0.0533
0.0417
0.0433
0.0400
0.0400
0.0383
0.0400
0.0367
0.0367
0.0333
0.0350
0.0333
0.0350
0.0317
0.0333
0.0300
0.0283
0.0317
0.0317
0.0367
0.0367
0.0483
0.0483
0.0533
0.0533
0.0500
0.0500
0.0467
0.0467
0.0433
0.0433
0.0383
0.0400
0.0367
0.0367
0.0350
0.0350
0.0367
0.0333
0.0367
0.0350
0.0367
0.0367
0.0350
0.0350
0.0367
0.0367
0.0417
0.0433
0.0483
0.0483
0.0517
0.0483
0.0383
0.0383
0.0183
0.0183
0.0000
-0.0017
-0.0133
-0.0117
-0.0083
-0.0083
0.0033
0.0033
0.0067
0.0083
0.0050
0.0083
0.0050
0.0067
0.0117
0.0100
0.0117
0.0117
0.0167
0.0150
0.0233
0.0250
0.0217
0.0267
0.0233
0.0250
0.0217
0.0217
0.0150
0.0167
0.0117
0.0117
0.0067
0.0067
0.0083
0.0083
0.0150
0.0150
0.0267
0.0267
0.0350
0.0350
0.0433
0.0433
0.0400
0.0400
0.0300
0.0300
0.0217
0.0217
0.0200
0.0217
0.0200
0.0217
0.0233
0.0233
0.0300
0.0317
0.0333
0.0317
0.0250
0.0250
0.0183
0.0183
0.0133
0.0150
0.0100
0.0117
0.0083
0.0083
0.0050
0.0067
0.0100
0.0117
0.0167
0.0183
0.0133
0.0150
0.0133
0.0133
0.0033
0.0050
-0.0117
-0.0117
-0.0450
-0.0450
-0.0167
-0.0117
-0.1500
-0.1350
-0.0350
-0.0317
0.0017
0.0017
0.0100
0.0133
0.0083
0.0083
-0.0050
-0.0083
0.0000
-0.0017
0.0083
0.0083
0.0133
0.0133
0.0117
0.0117
0.0150
0.0133
0.0200
0.0217
0.0183
0.0183
-0.0050
-0.0067
-0.0367
-0.0383
-0.0567
-0.0567
-0.0400
-0.0383
-0.0033
-0.0017
0.0133
0.0133
0.0200
0.0200
0.0167
0.0183
0.0083
0.0117
0.0033
0.0033
0.0067
0.0067
0.0117
0.0100
0.0133
0.0117
0.0133
0.0117
0.0033
0.0033
-0.0017
0.0000
-0.0050
-0.0033
-0.0050
-0.0033
0.0050
0.0050
0.0117
0.0117
0.0083
0.0083
0.0050
0.0050
0.0000
0.0000
-0.0100
-0.0100
-0.0167
-0.0150
-0.0217
-0.0200
-0.0233
-0.0233
-0.0267
-0.0250
-0.0283
-0.0283
-0.0333
-0.0333
-0.0383
-0.0350
-0.0417
-0.0400
-0.0417
-0.0400
-0.0433
-0.0417
-0.0467
-0.0467
-0.0500
-0.0450
-0.0317
-0.0317
-0.0283
-0.0283
-0.0267
-0.0267
-0.0333
-0.0333
-0.0417
-0.0417
-0.0383
-0.0417
-0.0383
-0.0400
-0.0450
-0.0467
-0.0983
-0.1000
-0.1850
-0.1883
-0.1483
-0.1433
-0.0400
-0.0367
0.0417
0.0433
0.0533
0.0450
0.0167
0.0150
-0.0083
-0.0083
-0.0183
-0.0183
-0.0217
-0.0200
-0.0233
-0.0233
-0.0333
-0.0333
-0.0517
-0.0517
-0.0700
-0.0700
-0.0783
-0.0800
-0.0750
-0.0750
-0.0667
-0.0667
-0.0650
-0.0650
-0.0583
-0.0583
-0.0517
-0.0517
-0.0433
-0.0433
-0.0400
-0.0383
-0.0433
-0.0433
-0.0350
-0.0350
-0.0150
-0.0150
-0.0017
-0.0017
0.0167
0.0183
0.0500
0.0517
0.0933
0.1050
0.0617
0.0333
0.2483
0.2633
0.0917
0.3417
-0.0067
0.0017
-0.0233
-0.0233
-0.1017
-0.0483
-0.1700
-0.2233
-0.1317
-0.1250
0.0333
0.0383
0.1067
0.1067
0.0483
0.0433
-0.0450
-0.0483
-0.1117
-0.1133
-0.1417
-0.1417
-0.1500
-0.1500
-0.1450
-0.1467
-0.1400
-0.1400
-0.1283
-0.1283
-0.1133
-0.1117
-0.0967
-0.0967
-0.0833
-0.0833
-0.0783
-0.0783
-0.0817
-0.0833
-0.0717
-0.0717
-0.0600
-0.0600
-0.0533
-0.0533
-0.0450
-0.0433
-0.0300
-0.0300
-0.0250
-0.0250
-0.0217
-0.0217
-0.0267
-0.0267
-0.0250
-0.0233
-0.0167
-0.0167
-0.0100
-0.0100
-0.0050
-0.0067
-0.0017
-0.0017
0.0033
0.0033
0.0017
0.0033
-0.0017
-0.0017
-0.0050
-0.0033
0.0000
0.0000
0.0067
0.0083
0.0167
0.0150
0.0133
0.0133
0.0150
0.0133
0.0183
0.0183
0.0150
0.0183
0.0167
0.0167
0.0150
0.0167
0.0200
0.0167
0.0117
0.0150
0.0233
0.0233
0.0333
0.0333
0.0367
0.0383
0.0350
0.0350
0.0267
0.0250
0.0217
0.0250
0.0217
0.0233
0.0383
0.0383
0.0533
0.0550
0.0517
0.0517
0.0433
0.0433
0.0383
0.0383
0.0417
0.0400
0.0433
0.0433
0.0417
0.0433
0.0383
0.0383
0.0317
0.0317
0.0267
0.0267
0.0217
0.0233
0.0217
0.0217
0.0267
0.0283
0.0317
0.0300
0.0267
0.0283
0.0250
0.0267
0.0150
0.0150
0.0083
0.0083
0.0017
0.0017
0.0050
0.0050
0.0100
0.0100
0.0167
0.0167
0.0217
0.0217
0.0233
0.0217
0.0200
0.0200
0.0217
0.0183
0.0217
0.0217
0.0183
0.0183
0.0167
0.0167
0.0150
0.0150
0.0183
0.0167
0.0183
0.0200
0.0217
0.0217
0.0167
0.0183
0.0150
0.0167
0.0133
0.0150
0.0167
0.0150
0.0117
0.0117
0.0050
0.0033
0.0067
0.0083
0.0050
0.0067
0.0033
0.0050
0.0083
0.0083
0.0017
0.0000
-0.0433
-0.0450
-0.1100
-0.1117
-0.1333
-0.1250
-0.0417
-0.0383
-0.0067
-0.0067
0.0000
0.0000
0.0433
0.0467
0.0883
0.0900
0.1483
0.1683
-0.0083
-0.0200
-0.0650
-0.0583
-0.0250
-0.0250
-0.0033
-0.0033
0.0033
0.0033
0.0117
0.0117
-0.0033
-0.0050
-0.0633
-0.0667
-0.1283
-0.1300
-0.0700
-0.0650
0.0433
0.0483
0.1167
0.1167
0.0917
0.0900
0.0433
0.0433
0.0167
0.0167
0.0083
0.0083
0.0050
0.0050
0.0000
0.0000
-0.0150
-0.0167
-0.0300
-0.0300
-0.0400
-0.0417
-0.0383
-0.0383
-0.0300
-0.0283
-0.0183
-0.0167
-0.0100
-0.0083
-0.0100
-0.0067
-0.0133
-0.0133
-0.0217
-0.0217
-0.0300
-0.0300
-0.0400
-0.0400
-0.0450
-0.0450
-0.0483
-0.0467
-0.0500
-0.0500
-0.0533
-0.0517
-0.0550
-0.0533
-0.0550
-0.0567
-0.0533
-0.0533
-0.0550
-0.0533
-0.0567
-0.0567
-0.0600
-0.0600
-0.0667
-0.0650
-0.0700
-0.0700
-0.0683
-0.0683
-0.0700
-0.0683
-0.0717
-0.0717
-0.0767
-0.0767
-0.0800
-0.0783
-0.0833
-0.0817
-0.0867
-0.0867
-0.0933
0.1
-0.0933
-0.0967
-0.0967
-0.1000
-0.1000
-0.1017
-0.1017
-0.1050
-0.1050
-0.1083
-0.1067
-0.1100
-0.1083
-0.1100
-0.1083
-0.1100
-0.1083
-0.1133
-0.1117
-0.1150
-0.1150
-0.1183
-0.1167
-0.1183
-0.1183
-0.1217
-0.1200
-0.1233
-0.1217
-0.1183
-0.1217
-0.1150
-0.1133
-0.1100
-0.1117
-0.0967
-0.0967
-0.0633
-0.0617
-0.0417
-0.0650
-0.1750
-0.1317
0.1250
-0.0967
0.1717
0.1683
-0.2717
-0.2733
-0.3667
-0.3283
-0.2417
-0.2383
-0.2000
-0.1983
-0.1817
-0.1800
-0.1717
-0.1700
-0.1567
-0.1567
-0.1467
-0.1467
-0.1417
-0.1400
-0.1433
-0.1417
-0.1500
-0.1500
-0.1700
-0.1700
-0.1717
-0.1700
-0.1633
-0.1650
-0.1667
-0.1633
-0.1550
-0.1550
-0.1383
-0.1367
-0.1500
-0.1533
-0.2050
-0.1950
-0.0867
-0.0800
0.0717
0.0767
0.1533
0.1867
0.0683
0.0517
-0.0383
0.0300
0.2433
0.2133
0.1750
0.1717
0.1150
0.1117
0.0250
0.0200
-0.0767
-0.0800
-0.1517
-0.1550
-0.2033
-0.2033
-0.2267
-0.2250
-0.2283
-0.2300
-0.2267
-0.2283
-0.2200
-0.2200
-0.2133
-0.2117
-0.1967
-0.1967
-0.1717
-0.1700
-0.1417
-0.1417
-0.1250
-0.1250
-0.1183
-0.1183
-0.1117
-0.1117
-0.1017
-0.1017
-0.0950
-0.0950
-0.0883
-0.0883
-0.0833
-0.0850
-0.0767
-0.0750
-0.0683
-0.0683
-0.0617
-0.0600
-0.0567
-0.0567
-0.0500
-0.0517
-0.0483
-0.0483
-0.0433
-0.0417
-0.0450
-0.0417
-0.0367
-0.0367
-0.0317
-0.0317
-0.0350
-0.0317
-0.0267
-0.0267
-0.0200
-0.0217
-0.0133
-0.0133
-0.0083
-0.0100
0.0033
0.0017
0.0083
0.0067
0.0150
0.0133
0.0167
0.0167
0.0133
0.0150
0.0200
0.0183
0.0217
0.0200
0.0233
0.0217
0.0250
0.0233
0.0250
0.0250
0.0283
0.0267
0.0300
0.0283
0.0317
0.0317
0.0333
0.0317
0.0350
0.0367
0.0350
0.0367
0.0383
0.0367
0.0400
0.0400
0.0433
0.0433
0.0467
0.0450
0.0483
0.0483
0.0533
0.0533
0.0617
0.0617
0.0717
0.0700
0.0783
0.0800
0.0917
0.0917
0.0967
0.0967
0.0900
0.0900
0.0733
0.0717
0.0517
0.0500
0.0433
0.0417
0.0500
0.0517
0.0617
0.0633
0.0717
0.0717
0.0767
0.0767
0.0733
0.0733
0.0600
0.0617
0.0533
0.0517
0.0550
0.0517
0.0633
0.0633
0.0783
0.0800
0.0967
0.0967
0.0867
0.0850
0.0633
0.0617
0.0367
0.0350
0.0333
0.0333
0.0317
0.0333
0.0350
0.0317
0.0383
0.0383
0.0450
0.0433
0.0383
0.0383
0.0467
0.0467
0.0550
0.0567
0.0450
0.0433
0.0033
0.0017
-0.0100
-0.0033
0.0967
0.1017
0.1983
0.2000
0.2150
0.2167
0.2517
0.2717
0.1750
0.1567
0.0383
0.0417
0.0817
0.0833
0.1100
0.1100
0.1200
0.1233
0.1200
0.1200
0.1250
0.1250
0.1350
0.1350
0.1467
0.1467
0.1583
0.1583
0.1367
0.1350
0.0450
0.0400
-0.0267
-0.0233
0.0717
0.0783
0.1717
0.1733
0.2250
0.2267
0.2050
0.2033
0.1683
0.1667
0.1450
0.1450
0.1333
0.1333
0.1233
0.1233
0.1200
0.1233
0.1183
0.1200
0.1150
0.1150
0.1100
0.1117
0.1100
0.1100
0.1033
0.1017
0.0933
0.0933
0.0867
0.0850
0.0883
0.0850
0.0883
0.0867
0.0850
0.0833
0.0867
0.0850
0.0817
0.0850
0.0883
0.0900
0.0967
0.0950
0.0983
0.0983
0.0950
0.0950
0.0883
0.0867
0.0833
0.0817
0.0867
0.0867
0.0967
0.0967
0.1033
0.1017
0.1050
0.1050
0.1017
0.1033
0.1017
0.1017
0.0917
0.0933
0.0833
0.0833
0.0733
0.0733
0.0650
0.0650
0.0617
0.0617
0.0583
0.0600
0.0617
0.0617
0.0650
0.0633
0.0650
0.0650
0.0667
0.0667
0.0633
0.0633
0.0600
0.0600
0.0567
0.0550
0.0600
0.0583
0.0650
0.0650
0.0633
0.0633
0.0583
0.0583
0.0600
0.0600
0.0617
0.0617
0.0683
0.0700
0.0783
0.0783
0.0883
0.0883
0.1183
0.1217
0.1600
0.1633
0.0700
0.0583
0.3717
0.3433
0.0967
0.3550
-0.0983
-0.1017
-0.2067
-0.2000
-0.1150
-0.1133
-0.0667
-0.0650
-0.0467
-0.0450
-0.0300
-0.0283
-0.0217
-0.0200
-0.0117
-0.0117
-0.0167
-0.0167
-0.0250
-0.0250
-0.0350
-0.0350
-0.0300
-0.0300
-0.0250
-0.0250
-0.0217
-0.0233
-0.0183
-0.0200
-0.0133
-0.0150
-0.0117
-0.0133
-0.0150
-0.0117
-0.0150
-0.0150
-0.0117
-0.0133
-0.0083
-0.0067
-0.0100
-0.0083
-0.0133
-0.0117
-0.0150
-0.0150
-0.0200
-0.0200
-0.0300
-0.0300
-0.0417
-0.0400
-0.0233
-0.0217
-0.0083
-0.0083
0.0033
0.0050
0.0133
0.0133
0.0200
0.0200
0.0250
0.0217
0.0133
0.0117
-0.0033
-0.0050
-0.0217
-0.0217
-0.0367
-0.0350
-0.0517
-0.0533
-0.1417
-0.1483
-0.1050
-0.1000
0.0083
0.0133
0.0517
0.0483
0.0300
0.0283
0.0017
0.0017
-0.0050
-0.0050
-0.0083
-0.0067
-0.0050
-0.0067
-0.0083
-0.0083
-0.0117
-0.0117
-0.0183
-0.0200
-0.0233
-0.0233
-0.0300
-0.0300
-0.0367
-0.0350
-0.0417
-0.0417
-0.0467
-0.0467
-0.0517
-0.0517
-0.0533
-0.0533
-0.0567
-0.0583
-0.0517
-0.0517
-0.0467
-0.0467
-0.0433
-0.0433
-0.0467
-0.0467
-0.0500
-0.0483
-0.0400
-0.0400
-0.0350
-0.0383
-0.0350
-0.0367
-0.0400
-0.0400
-0.0383
-0.0383
-0.0283
-0.0283
-0.0133
-0.0133
0.0100
0.0117
0.0517
0.0533
0.1033
0.1067
0.1700
0.0767
0.2383
0.2550
0.0817
0.1383
0.1900
0.1950
0.1733
0.1717
0.0817
0.0767
-0.0283
-0.0333
-0.1217
-0.1250
-0.1833
-0.1850
-0.2183
-0.2183
-0.2333
-0.2350
-0.2450
-0.2467
-0.2533
-0.2517
-0.2550
-0.2533
-0.2483
-0.2467
-0.2350
-0.2350
-0.2267
-0.2267
-0.2417
-0.2433
-0.2583
-0.2600
-0.2517
-0.2500
-0.2283
-0.2283
-0.2083
-0.2083
-0.2150
-0.2167
-0.2317
-0.2333
-0.2400
-0.2383
-0.2250
-0.2250
-0.2100
-0.2100
-0.2433
-0.2450
-0.3333
-0.3500
-0.3267
-0.3233
-0.2183
-0.2150
-0.1417
-0.1383
-0.0367
-0.0333
0.0083
0.0083
-0.0067
-0.0083
-0.0167
-0.0117
-0.0167
-0.0167
-0.0400
-0.0417
-0.0383
-0.0400
-0.0333
-0.0317
-0.0167
-0.0150
0.0250
0.0567
0.0183
0.0067
-0.1650
-0.1650
-0.1500
-0.1500
-0.1350
-0.1350
-0.1267
-0.1283
-0.1183
-0.1167
-0.1000
-0.1000
-0.0750
-0.0750
-0.0583
-0.0583
-0.0433
-0.0433
-0.0417
-0.0417
-0.0467
-0.0450
-0.0517
-0.0483
-0.0517
-0.0517
-0.0533
-0.0517
-0.0550
-0.0533
-0.0567
-0.0550
-0.0567
-0.0567
-0.0533
-0.0533
-0.0500
-0.0517
-0.0483
-0.0483
-0.0500
-0.0467
-0.0483
-0.0483
-0.0450
-0.0450
-0.0433
-0.0450
-0.0417
-0.0417
-0.0450
-0.0433
-0.0400
-0.0417
-0.0383
-0.0367
-0.0383
-0.0400
-0.0367
-0.0383
-0.0400
-0.0383
-0.0350
-0.0367
-0.0400
-0.0383
-0.0417
-0.0383
-0.0417
-0.0417
-0.0383
-0.0400
-0.0367
-0.0383
-0.0350
-0.0367
-0.0383
-0.0350
-0.0383
-0.0350
-0.0383
-0.0383
-0.0350
-0.0367
-0.0383
-0.0367
-0.0383
-0.0383
-0.0350
-0.0350
-0.0383
-0.0367
-0.0350
-0.0383
-0.0350
-0.0350
-0.0333
-0.0350
-0.0317
-0.0333
-0.0317
-0.0317
-0.0283
-0.0283
-0.0250
-0.0250
-0.0217
-0.0217
-0.0200
-0.0183
-0.0217
-0.0200
-0.0233
-0.0217
-0.0233
-0.0233
-0.0183
-0.0200
-0.0167
-0.0167
-0.0083
-0.0083
-0.0017
-0.0017
0.0017
0.0017
0.0050
0.0017
-0.0067
-0.0067
-0.0150
-0.0150
-0.0117
-0.0117
-0.0017
-0.0017
0.0050
0.0050
0.0100
0.0100
0.0150
0.0133
0.0167
0.0167
0.0133
0.0150
0.0200
0.0183
0.0217
0.0183
0.0317
0.0333
0.0667
0.0667
-0.0333
-0.0667
0.3200
0.3400
-0.0033
0.2550
-0.1317
-0.1517
-0.2817
-0.3033
-0.2467
-0.2433
-0.1750
-0.1733
-0.1333
-0.1333
-0.1117
-0.1117
-0.0917
-0.0900
-0.0717
-0.0717
-0.0517
-0.0500
-0.0267
-0.0267
-0.0017
-0.0017
0.0267
0.0283
0.0483
0.0500
0.0550
0.0517
0.0467
0.0467
0.0417
0.0417
0.0317
0.0317
0.0217
0.0217
0.0167
0.0183
0.0133
0.0150
0.0133
0.0150
0.0117
0.0117
0.0150
0.0117
0.0150
0.0133
0.0167
0.0150
0.0133
0.0133
0.0067
0.0067
-0.0050
-0.0050
-0.0133
-0.0133
-0.0167
-0.0167
-0.0217
-0.0200
-0.0167
-0.0167
-0.0100
-0.0100
-0.0017
0.0000
0.0100
0.0100
0.0183
0.0200
0.0267
0.0283
0.0317
0.0317
0.0350
0.0333
0.0383
0.0383
0.0450
0.0450
0.0500
0.0500
0.0533
0.0533
0.0500
0.0517
0.0550
0.0533
0.0567
0.0533
0.0567
0.0550
0.0483
0.0483
0.0450
0.0467
0.0450
0.0467
0.0500
0.0500
0.0533
0.0533
0.0600
0.0600
0.0667
0.0633
0.0683
0.0667
0.0733
0.0717
0.0733
0.0717
0.0750
0.0750
0.0733
0.0750
0.0767
0.0750
0.0783
0.0750
0.0783
0.0767
0.0817
0.0817
0.0767
0.0767
0.0750
0.0767
0.0733
0.0717
0.0750
0.0717
0.0750
0.0717
0.0767
0.0767
0.0733
0.0767
0.0717
0.0717
0.0733
0.0733
0.0700
0.0717
0.0767
0.0767
0.0817
0.0833
0.0800
0.0833
0.0800
0.0817
0.0767
0.0767
0.0733
0.0750
0.0733
0.0783
0.0733
0.0750
0.0800
0.0800
0.0917
0.0917
0.1000
0.1000
0.1067
0.1050
0.1117
0.1150
0.1100
0.1
0.1100
0.0917
0.0917
0.0717
0.0700
0.0617
0.0617
0.0250
0.0217
-0.0100
0.0217
0.1783
0.1867
0.3733
0.3783
0.4733
0.4767
0.3300
0.3300
0.4850
0.4283
0.3733
0.3967
0.4200
0.4167
0.3817
0.3783
0.2450
0.2367
0.0800
0.0750
-0.0300
-0.0333
-0.0983
-0.1000
-0.1650
-0.1667
-0.2250
-0.2367
-0.2167
-0.2133
-0.1133
-0.1100
-0.0617
-0.0617
-0.0567
-0.0617
-0.0567
-0.0567
-0.0633
-0.0650
-0.0717
-0.0683
-0.0533
-0.0533
-0.0433
-0.0433
-0.0317
-0.0300
-0.0250
-0.0250
-0.0183
-0.0183
-0.0150
-0.0150
-0.0117
-0.0117
-0.0017
-0.0017
0.0067
0.0067
0.0150
0.0167
0.0300
0.0300
0.0250
0.0267
0.0250
0.0250
0.0267
0.0250
0.0283
0.0283
0.0383
0.0383
0.0450
0.0450
0.0517
0.0517
0.0533
0.0533
0.0500
0.0500
0.0483
0.0467
0.0517
0.0517
0.0483
0.0467
0.0400
0.0417
0.0367
0.0383
0.0350
0.0367
0.0400
0.0367
0.0333
0.0367
0.0350
0.0350
0.0383
0.0367
0.0383
0.0383
0.0350
0.0383
0.0333
0.0317
0.0350
0.0333
0.0367
0.0350
0.0400
0.0383
0.0417
0.0400
0.0467
0.0500
0.0450
0.0450
0.0367
0.0367
0.0300
0.0300
0.0283
0.0283
0.0333
0.0350
0.0417
0.0417
0.0833
0.0850
0.1167
0.1050
-0.0650
-0.0650
-0.0300
-0.0283
0.0033
0.0017
0.0100
0.0083
0.0017
0.0017
-0.0117
-0.0133
-0.0083
-0.0067
0.0050
0.0067
0.0333
0.0350
0.0783
0.1083
0.0667
0.0583
-0.0717
0.0683
0.4617
0.3017
0.0600
0.0150
-0.2450
-0.2517
-0.3200
-0.2900
-0.2217
-0.2200
-0.1867
-0.1867
-0.1650
-0.1650
-0.1450
-0.1450
-0.1300
-0.1300
-0.1183
-0.1167
-0.1117
-0.1117
-0.1017
-0.1000
-0.0917
-0.0917
-0.0833
-0.0817
-0.0850
-0.0867
-0.0983
-0.1000
-0.1117
-0.1133
-0.1217
-0.1217
-0.1250
-0.1233
-0.1300
-0.1317
-0.1350
-0.1367
-0.1300
-0.1317
-0.1183
-0.1183
-0.1133
-0.1117
-0.1050
-0.1067
-0.1033
-0.1050
-0.1100
-0.1100
-0.1083
-0.1100
-0.1083
-0.1100
-0.1067
-0.1067
-0.1083
-0.1067
-0.1083
-0.1083
-0.1100
-0.1100
-0.1117
-0.1100
-0.1167
-0.1150
-0.1183
-0.1167
-0.1117
-0.1100
-0.1050
-0.1050
-0.1017
-0.1017
-0.0983
-0.1000
-0.1033
-0.1050
-0.1033
-0.1017
-0.1050
-0.1050
-0.1117
-0.1100
-0.1133
-0.1117
-0.1083
-0.1083
-0.1050
-0.1050
-0.1033
-0.1033
-0.1050
-0.1050
-0.1150
-0.1150
-0.1233
-0.1233
-0.1283
-0.1267
-0.1200
-0.1217
-0.1150
-0.1167
-0.1117
-0.1133
-0.1083
-0.1083
-0.1033
-0.1033
-0.1017
-0.1033
-0.0983
-0.1000
-0.0933
-0.0933
-0.0917
-0.0917
-0.0883
-0.0900
-0.0833
-0.0850
-0.0817
-0.0817
-0.0783
-0.0833
-0.0817
-0.0850
-0.0900
-0.0900
-0.0950
-0.0950
-0.0967
-0.0950
-0.0917
-0.0933
-0.0900
-0.0900
-0.0917
-0.0933
-0.0883
-0.0883
-0.0817
-0.0800
-0.0817
-0.0800
-0.0833
-0.0833
-0.0850
-0.0833
-0.0767
-0.0767
-0.0700
-0.0700
-0.0600
-0.0600
-0.0500
-0.0500
-0.0433
-0.0433
-0.0417
-0.0417
-0.0283
-0.0300
-0.0267
-0.0300
-0.0317
-0.0317
-0.0267
-0.0267
-0.0217
-0.0217
-0.0183
-0.0200
-0.0150
-0.0167
-0.0117
-0.0167
-0.0867
-0.0917
-0.1983
-0.2100
-0.1867
-0.1800
-0.0317
-0.0267
0.0700
0.0733
0.0900
0.0783
0.0350
0.0333
0.0033
0.0017
-0.0167
-0.0167
-0.0417
-0.0433
-0.0633
-0.0650
-0.0433
-0.0417
0.0533
0.0567
0.0850
0.0850
0.0717
0.0717
0.0800
0.0800
0.0783
0.0783
0.0650
0.0667
0.0567
0.0550
0.0367
0.0350
0.0183
0.0183
0.0067
0.0083
0.0117
0.0117
0.0250
0.0250
0.0383
0.0383
0.0467
0.0467
0.0483
0.0467
0.0500
0.0483
0.0550
0.0550
0.0583
0.0600
0.0700
0.0717
0.0783
0.0783
0.0767
0.0783
0.0700
0.0700
0.0683
0.0683
0.0717
0.0717
0.0767
0.0767
0.0750
0.0750
0.0767
0.0733
0.0767
0.0767
0.0717
0.0733
0.0783
0.0783
0.0833
0.0817
0.0867
0.0867
0.0850
0.0850
0.0883
0.0883
0.0850
0.0883
0.0850
0.0867
0.0850
0.0850
0.0900
0.0900
0.0983
0.0967
0.1050
0.1050
0.1100
0.1100
0.1133
0.1133
0.1100
0.1100
0.1050
0.1083
0.1050
0.1067
0.1017
0.1017
0.0900
0.0883
0.0833
0.0867
0.0467
0.0417
-0.0500
-0.0483
0.0467
0.0533
0.1700
0.1717
0.1917
0.1917
0.1667
0.1650
0.1400
0.1400
0.1233
0.1233
0.1117
0.1117
0.1033
0.1000
0.1050
0.1050
0.1217
0.1217
0.1300
0.1300
0.1383
0.1400
0.1350
0.1350
0.1317
0.1317
0.1483
0.1483
0.1733
0.1750
0.2050
0.2067
0.2683
0.2717
0.3450
0.3500
0.2250
0.2283
0.5250
0.5533
0.8150
0.7900
0.6533
0.6467
0.4533
0.4450
0.2750
0.2683
0.1250
0.1200
0.0083
0.0050
-0.0683
-0.0717
-0.1183
-0.1200
-0.1450
-0.1450
-0.1517
-0.1500
-0.1517
-0.1500
-0.1450
-0.1450
-0.1433
-0.1450
-0.1400
-0.1383
-0.1217
-0.1200
-0.1050
-0.1033
-0.0800
-0.0783
-0.0483
-0.0467
-0.0183
-0.0183
0.0017
0.0017
0.0100
0.0100
0.0250
0.0250
0.0433
0.0450
0.0667
0.0683
0.1117
0.1150
0.1600
0.1533
0.0000
0.0000
0.0483
0.0500
0.0950
0.0967
0.1250
0.1250
0.1600
0.1600
0.2083
0.2083
0.0150
0.0100
0.5367
0.5050
0.1683
0.3200
-0.1067
-0.1133
-0.2217
-0.2167
-0.1367
-0.1333
-0.0767
-0.0733
-0.0483
-0.0483
-0.0333
-0.0333
-0.0250
-0.0233
-0.0133
-0.0150
-0.0033
-0.0033
0.0033
0.0033
0.0133
0.0150
0.0283
0.0283
0.0417
0.0433
0.0600
0.0600
0.0683
0.0683
0.0717
0.0700
0.0617
0.0617
0.0550
0.0567
0.0533
0.0550
0.0567
0.0567
0.0583
0.0567
0.0550
0.0567
0.0533
0.0533
0.0467
0.0467
0.0433
0.0433
0.0383
0.0383
0.0333
0.0333
0.0300
0.0300
0.0283
0.0283
0.0317
0.0283
0.0333
0.0317
0.0300
0.0300
0.0283
0.0283
0.0267
0.0267
0.0233
0.0233
0.0217
0.0217
0.0183
0.0200
0.0150
0.0150
0.0117
0.0117
0.0067
0.0083
0.0033
0.0033
-0.0017
-0.0017
-0.0067
-0.0067
-0.0117
-0.0117
-0.0083
-0.0117
-0.0100
-0.0117
-0.0100
-0.0117
-0.0167
-0.0150
-0.0217
-0.0217
-0.0233
-0.0233
-0.0267
-0.0250
-0.0283
-0.0283
-0.0300
-0.0300
-0.0317
-0.0300
-0.0333
-0.0317
-0.0283
-0.0283
-0.0333
-0.0333
-0.0500
-0.0517
-0.0750
-0.0767
-0.0900
-0.0900
-0.0950
-0.0950
-0.1000
-0.0983
-0.0933
-0.0967
-0.0983
-0.0983
-0.0950
-0.0967
-0.0850
-0.0850
-0.0833
-0.0850
-0.0883
-0.0883
-0.0950
-0.0950
-0.0983
-0.0983
-0.1100
-0.1100
-0.1250
-0.1267
-0.1450
-0.1483
-0.2267
-0.2333
-0.3633
-0.3767
-0.3517
-0.3483
-0.2050
-0.2000
-0.1083
-0.1050
-0.0817
-0.0883
-0.1183
-0.1183
-0.1300
-0.1317
-0.1267
-0.1267
-0.1333
-0.1333
-0.1300
-0.1317
-0.1367
-0.1383
-0.1433
-0.1450
-0.1467
-0.1483
-0.1450
-0.1450
-0.1400
-0.1417
-0.1517
-0.1533
-0.1867
-0.1900
-0.2483
-0.2517
-0.2683
-0.2650
-0.1833
-0.1783
-0.1150
-0.1117
-0.1217
-0.1233
-0.1400
-0.1400
-0.1700
-0.1700
-0.2083
-0.2083
-0.1933
-0.1917
-0.1733
-0.1717
-0.1600
-0.1583
-0.1617
-0.1617
-0.1717
-0.1717
-0.1750
-0.1783
-0.1750
-0.1750
-0.1667
-0.1667
-0.1567
-0.1583
-0.1533
-0.1533
-0.1583
-0.1583
-0.1650
-0.1617
-0.1683
-0.1683
-0.1650
-0.1650
-0.1617
-0.1650
-0.1617
-0.1617
-0.1600
-0.1600
-0.1617
-0.1600
-0.1583
-0.1600
-0.1567
-0.1567
-0.1517
-0.1517
-0.1433
-0.1433
-0.1367
-0.1350
-0.1383
-0.1383
-0.1367
-0.1383
-0.1300
-0.1300
-0.1217
-0.1217
-0.1083
-0.1083
-0.0983
-0.0983
-0.0917
-0.0917
-0.0833
-0.0833
-0.0783
-0.0783
-0.0733
-0.0767
-0.0667
-0.0667
-0.0617
-0.0600
-0.0550
-0.0550
-0.0483
-0.0467
-0.0417
-0.0417
-0.0383
-0.0367
-0.0333
-0.0350
-0.0267
-0.0267
-0.0200
-0.0200
-0.0133
-0.0150
-0.0117
-0.0117
-0.0083
-0.0083
-0.0100
-0.0083
-0.0067
-0.0067
-0.0017
-0.0017
0.0083
0.0083
0.0133
0.0117
0.0083
0.0117
0.0067
0.0067
-0.0033
-0.0017
-0.0217
-0.0233
-0.0317
-0.0283
-0.0783
-0.0833
-0.1733
-0.1700
-0.0550
-0.0483
0.0683
0.0700
0.0883
0.0850
0.0600
0.0583
0.0400
0.0383
0.0217
0.0217
0.0067
0.0067
0.0083
0.0050
0.0083
0.0100
0.0267
0.0283
0.0533
0.0550
0.0800
0.0817
0.1000
0.1017
0.1350
0.1367
0.1583
0.1600
0.1733
0.1733
0.1917
0.1933
0.2233
0.2250
0.2533
0.2550
0.1383
0.1383
0.2000
0.2033
0.2933
0.2983
0.4183
0.4267
0.5233
0.3817
0.4950
0.5317
0.9883
0.9167
1.1133
0.9600
0.5717
0.5600
0.2233
0.2100
-0.0133
-0.0217
-0.1683
-0.1733
-0.2683
-0.2700
-0.3183
-0.3200
-0.3400
-0.3383
-0.3433
-0.3383
-0.3200
-0.3200
-0.2883
-0.2867
-0.2517
-0.2517
-0.2167
-0.2150
-0.1833
-0.1817
-0.1550
-0.1550
-0.1233
-0.1233
-0.1050
-0.1050
-0.0817
-0.0817
-0.0667
-0.0650
-0.0500
-0.0500
-0.0350
-0.0333
-0.0233
-0.0217
-0.0133
-0.0133
-0.0067
-0.0083
-0.0050
0.1
-0.0017
-0.0067
-0.0033
0.0000
-0.0017
0.0050
0.0050
0.0117
0.0117
0.0200
0.0200
0.0283
0.0283
0.0350
0.0350
0.0383
0.0400
0.0483
0.0483
0.0500
0.0517
0.0583
0.0583
0.0550
0.0567
0.0550
0.0583
0.0550
0.0583
0.0617
0.0617
0.0600
0.0600
0.0617
0.0600
0.0583
0.0583
0.0600
0.0600
0.0567
0.0583
0.0550
0.0567
0.0533
0.0550
0.0517
0.0517
0.0500
0.0517
0.0483
0.0483
0.0450
0.0483
0.0417
0.0433
0.0450
0.0450
0.0433
0.0433
0.0467
0.0467
0.0433
0.0433
0.0283
0.0283
0.0167
0.0167
0.0133
0.0133
0.0183
0.0183
0.0267
0.0267
0.0317
0.0317
0.0267
0.0283
0.0217
0.0233
0.0183
0.0183
0.0233
0.0233
0.0200
0.0233
0.0267
0.0267
0.0183
0.0200
0.0150
0.0167
0.0200
0.0200
0.0233
0.0233
0.0183
0.0200
0.0217
0.0217
0.0183
0.0200
0.0233
0.0217
0.0167
0.0167
0.0100
0.0100
-0.0550
-0.0583
-0.1967
-0.2000
-0.2300
-0.1983
-0.0467
-0.0417
0.0600
0.0633
0.0850
0.0800
0.0400
0.0383
0.0017
0.0000
-0.0200
-0.0200
-0.0333
-0.0333
-0.0417
-0.0417
-0.0450
-0.0450
-0.0417
-0.0417
-0.0350
-0.0367
-0.0333
-0.0333
-0.0150
-0.0133
-0.0083
-0.0133
-0.0317
-0.0317
-0.0450
-0.0450
-0.0517
-0.0517
-0.0550
-0.0550
-0.0567
-0.0567
-0.0533
-0.0533
-0.0550
-0.0517
-0.0483
-0.0483
-0.0400
-0.0400
-0.0350
-0.0383
-0.0500
-0.0500
-0.0633
-0.0617
-0.0700
-0.0700
-0.0650
-0.0683
-0.0617
-0.0600
-0.0483
-0.0483
-0.0383
-0.0383
-0.0300
-0.0300
-0.0217
-0.0217
-0.0167
-0.0150
-0.0117
-0.0117
-0.0017
-0.0017
0.0050
0.0033
0.0067
0.0050
0.0067
0.0050
0.0067
0.0050
0.0100
0.0100
0.0183
0.0183
0.0250
0.0250
0.0317
0.0300
0.0333
0.0333
0.0183
0.0150
-0.0317
-0.0333
-0.0533
-0.0533
0.0167
0.0217
0.1067
0.1083
0.1200
0.1167
0.1050
0.1117
0.1067
0.1083
0.0917
0.0867
0.0917
0.0933
0.0950
0.0950
0.0933
0.0933
0.0883
0.0883
0.0833
0.0833
0.0800
0.0800
0.0850
0.0850
0.0950
0.0950
0.1017
0.1017
0.1067
0.1067
0.1133
0.1133
0.1217
0.1217
0.1333
0.1333
0.1450
0.1450
0.1550
0.1550
0.1667
0.1650
0.1667
0.1650
0.1517
0.1517
0.1200
0.1183
0.0917
0.0917
0.0767
0.0767
0.0833
0.0833
0.0967
0.0967
0.1017
0.1000
0.1067
0.1083
0.1100
0.1117
0.1067
0.1100
0.1067
0.1050
0.0967
0.0967
0.0917
0.0917
0.0900
0.0883
0.0933
0.0933
0.1050
0.1050
0.1167
0.1183
0.1300
0.1317
0.1433
0.1433
0.1450
0.1433
0.1350
0.1350
0.1233
0.1233
0.1150
0.1167
0.1233
0.1233
0.1283
0.1300
0.1350
0.1350
0.1467
0.1467
0.1583
0.1583
0.1683
0.1667
0.1717
0.1717
0.1800
0.1800
0.2150
0.2167
0.2800
0.2900
0.1033
0.0600
0.5483
0.5500
0.1767
0.2883
0.0383
0.0250
-0.1050
-0.1067
-0.0583
-0.0550
0.0050
0.0067
0.0467
0.0483
0.0850
0.0767
-0.0250
-0.0300
-0.0567
-0.0367
0.0083
0.0100
0.0300
0.0333
0.0300
0.0317
0.0500
0.0467
-0.0500
-0.0567
-0.1000
-0.0617
0.0967
0.1017
0.1767
0.1783
0.1667
0.1650
0.1383
0.1367
0.1167
0.1150
0.1067
0.1067
0.0900
0.0900
0.0733
0.0717
0.0567
0.0583
0.0550
0.0533
0.0567
0.0567
0.0617
0.0617
0.0583
0.0600
0.0633
0.0600
0.0567
0.0567
0.0500
0.0500
0.0433
0.0433
0.0383
0.0383
0.0317
0.0317
0.0233
0.0233
0.0167
0.0150
0.0133
0.0133
0.0100
0.0067
0.0150
0.0150
0.0333
0.0333
0.0450
0.0450
0.0500
0.0517
0.0550
0.0533
0.0617
0.0633
0.0800
0.0800
0.1017
0.1033
0.1350
0.1367
0.1950
0.1967
0.2567
0.2600
0.3083
0.3100
0.6067
0.6133
1.0000
1.0050
0.8400
0.8300
0.5117
0.4983
0.1883
0.1767
-0.0483
-0.0550
-0.1983
-0.2033
-0.2967
-0.3000
-0.3483
-0.3500
-0.3700
-0.3683
-0.3717
-0.3700
-0.3550
-0.3550
-0.3350
-0.3333
-0.3217
-0.3267
-0.3883
-0.3933
-0.5067
-0.5083
-0.3900
-0.3817
-0.2133
-0.2083
-0.0967
-0.0933
-0.0617
-0.0600
-0.0733
-0.0733
-0.0917
-0.0917
-0.1050
-0.1050
-0.1217
-0.1233
-0.1333
-0.1333
-0.1383
-0.1383
-0.1317
-0.1317
-0.1183
-0.1183
-0.1083
-0.1083
-0.1050
-0.1083
-0.1200
-0.1200
-0.1350
-0.1367
-0.1433
-0.1433
-0.1400
-0.1400
-0.1317
-0.1317
-0.1167
-0.1150
-0.0983
-0.0967
-0.0883
-0.0917
-0.0867
-0.0883
-0.0917
-0.0883
-0.0917
-0.0917
-0.0883
-0.0900
-0.0867
-0.0883
-0.0833
-0.0833
-0.0883
-0.0883
-0.0917
-0.0900
-0.0933
-0.0950
-0.0933
-0.0933
-0.0967
-0.0950
-0.0917
-0.0917
-0.0950
-0.0917
-0.0933
-0.0917
-0.0900
-0.0917
-0.0933
-0.0933
-0.0917
-0.0917
-0.0933
-0.0917
-0.0900
-0.0917
-0.0883
-0.0917
-0.0867
-0.0867
-0.0883
-0.0867
-0.0900
-0.0867
-0.0917
-0.0917
-0.1000
-0.0983
-0.1000
-0.0983
-0.1000
-0.0967
-0.0933
-0.0933
-0.0850
-0.0850
-0.0767
-0.0767
-0.0733
-0.0750
-0.0700
-0.0717
-0.0667
-0.0700
-0.0650
-0.0633
-0.0583
-0.0600
-0.0533
-0.0517
-0.0450
-0.0450
-0.0467
-0.0467
-0.0433
-0.0467
-0.0483
-0.0467
-0.0417
-0.0417
-0.0350
-0.0350
-0.0283
-0.0300
-0.0217
-0.0217
-0.0150
-0.0150
-0.0083
-0.0100
-0.0117
-0.0117
-0.0183
-0.0167
-0.0250
-0.0250
-0.0200
-0.0200
-0.0100
-0.0100
-0.0017
-0.0017
0.0050
0.0050
0.0117
0.0100
0.0150
0.0150
0.0167
0.0183
0.0217
0.0217
0.0267
0.0267
0.0317
0.0300
0.0333
0.0317
0.0367
0.0333
0.0367
0.0367
0.0333
0.0333
0.0317
0.0333
0.0383
0.0383
0.0483
0.0483
0.0583
0.0583
0.0667
0.0683
0.0583
0.0583
0.0167
0.0150
-0.0250
-0.0283
0.0000
0.0017
0.1067
0.1117
0.1633
0.1617
0.1667
0.1650
0.1667
0.1650
0.1367
0.1333
0.0900
0.0883
0.0800
0.0800
0.0750
0.0767
0.0833
0.0850
0.1017
0.1017
0.1083
0.1083
0.1133
0.1133
0.1083
0.1083
0.1033
0.1033
0.1083
0.1083
0.1067
0.1100
0.1067
0.1083
0.1217
0.1217
0.1317
0.1333
0.1433
0.1450
0.1550
0.1550
0.1600
0.1600
0.1650
0.1650
0.1733
0.1717
0.1750
0.1750
0.1850
0.1850
0.2133
0.2150
0.2833
0.3167
0.1750
0.1083
0.5250
0.5467
0.1683
0.2500
0.0050
-0.0050
-0.1217
-0.1233
-0.0550
-0.0500
0.0317
0.0350
0.0983
0.1017
0.1517
0.1533
0.1750
0.1717
0.0583
0.0583
0.0967
0.0983
0.1350
0.1350
0.1483
0.1500
0.1517
0.1517
0.1500
0.1500
0.1517
0.1500
0.1533
0.1517
0.1533
0.1517
0.1550
0.1567
0.1533
0.1533
0.1567
0.1567
0.1550
0.1550
0.1483
0.1467
0.1400
0.1400
0.1367
0.1383
0.1417
0.1417
0.1383
0.1383
0.1350
0.1383
0.1400
0.1400
0.1417
0.1400
0.1467
0.1467
0.1550
0.1550
0.1633
0.1633
0.1700
0.1700
0.1867
0.1867
0.1933
0.1933
0.1850
0.1850
0.1733
0.1733
0.1667
0.1667
0.1617
0.1633
0.1650
0.1650
0.1633
0.1633
0.1600
0.1600
0.1567
0.1583
0.1550
0.1550
0.1500
0.1500
0.1467
0.1483
0.1433
0.1450
0.1417
0.1400
0.1433
0.1417
0.1350
0.1350
0.1283
0.1300
0.1150
0.1150
0.1067
0.1050
0.0050
0.0000
-0.0483
-0.0317
0.1033
0.1083
0.1950
0.1967
0.2033
0.1950
0.1683
0.1667
0.1483
0.1483
0.1383
0.1383
0.1317
0.1333
0.1250
0.1267
0.1167
0.1150
0.0467
0.0417
-0.0883
-0.0933
-0.1233
-0.0933
0.0750
0.0817
0.1867
0.1900
0.2167
0.2083
0.1717
0.1700
0.1317
0.1300
0.1050
0.1050
0.0833
0.0833
0.0700
0.0700
0.0633
0.0633
0.0567
0.0550
0.0483
0.0483
0.0417
0.0417
0.0400
0.0400
0.0350
0.0350
0.0317
0.0317
0.0267
0.0283
0.0233
0.0233
0.0183
0.0183
0.0117
0.0117
0.0083
0.0083
0.0017
0.0017
-0.0033
-0.0033
-0.0083
-0.0083
-0.0050
-0.0050
-0.0017
-0.0033
0.0000
0.0000
-0.0033
-0.0050
-0.0167
-0.0167
-0.0300
-0.0300
-0.0367
-0.0383
-0.0333
-0.0333
-0.0217
-0.0200
-0.0033
-0.0050
0.0000
-0.0017
-0.0050
-0.0017
-0.0067
-0.0050
-0.0100
-0.0100
-0.0300
-0.0300
-0.0533
-0.0550
-0.0600
-0.0600
-0.0533
-0.0550
-0.0483
-0.0483
-0.0350
-0.0367
-0.0300
-0.0300
-0.0183
-0.0183
-0.0067
-0.0050
0.0117
0.0133
0.0417
0.0433
0.1067
0.1100
0.2400
0.2417
0.3983
0.3833
0.7350
0.7550
0.8733
0.8433
0.6100
0.5967
0.2633
0.2500
-0.0250
-0.0350
-0.2233
-0.2283
-0.3417
-0.3450
-0.4083
-0.4100
-0.4350
-0.4350
-0.4383
-0.4367
-0.4317
-0.4317
-0.4200
-0.4200
-0.4017
-0.4000
-0.3700
-0.3700
-0.3350
-0.3333
-0.3067
-0.3050
-0.2850
-0.2850
-0.2667
-0.2667
-0.2483
-0.2483
-0.2283
-0.2267
-0.2117
-0.2117
-0.2283
-0.2283
-0.2650
